##NAMES=Calcite
##RRUFFID=R040070
##IDEAL CHEMISTRY=CaCO_3_
##LOCALITY=Pryor Mountain, Big Horn County, Montana, USA
##OWNER=RRUFF
##SOURCE=University of Arizona Mineral Museum
##DESCRIPTION=Orange scalenohedral crystals
##STATUS=The identification of this mineral has been confirmed by X-ray diffraction and chemical analysis
##URL=rruff.info/R040070
##MEASURED CHEMISTRY=(Ca_0.99_Mg_0.01_)CO_3_
125.4524, 387.6826
127.3809, 468.0844
129.3093, 562.2437
131.2378, 681.1317
133.1663, 783.6234
135.0947, 820.2693
137.0232, 876.0543
138.9517, 967.3906
140.8801, 1115.164
142.8086, 1446.863
144.7371, 1929.008
146.6655, 2696.415
148.5940, 4021.691
150.5225, 4894.851
152.4509, 5487.555
154.3794, 5731.200
156.3079, 5341.033
158.2363, 4247.823
160.1648, 3312.944
162.0933, 2494.725
164.0217, 1864.781
165.9502, 1476.750
167.8787, 1228.952
169.8071, 1061.205
171.7356, 968.6168
173.6641, 888.0076
175.5925, 816.7700
177.5210, 759.1178
179.4495, 720.0822
181.3779, 688.8270
183.3064, 658.1124
185.2349, 629.7892
187.1633, 610.5894
189.0918, 601.1009
191.0203, 592.4501
192.9487, 583.6724
194.8772, 576.2720
196.8057, 571.2792
198.7341, 567.7455
200.6626, 564.8754
202.5911, 562.7518
204.5195, 562.0720
206.4480, 563.6916
208.3765, 562.4864
210.3049, 552.7563
212.2334, 545.6817
214.1619, 548.6746
216.0903, 557.1650
218.0188, 562.9145
219.9473, 565.8389
221.8757, 567.5776
223.8042, 566.5917
225.7327, 568.9295
227.6611, 578.6818
229.5896, 590.7145
231.5181, 599.7896
233.4465, 608.4030
235.3750, 626.0506
237.3035, 652.3867
239.2319, 683.5408
241.1604, 718.4554
243.0889, 759.3438
245.0173, 802.4302
246.9458, 854.8381
248.8743, 921.3794
250.8027, 1003.325
252.7312, 1101.870
254.6597, 1214.573
256.5881, 1353.796
258.5166, 1508.230
260.4451, 1715.401
262.3735, 1942.796
264.3020, 2258.847
266.2305, 2693.107
268.1589, 3282.399
270.0874, 4164.882
272.0159, 5334.270
273.9443, 6855.306
275.8728, 9213.522
277.8013, 11247.83
279.7297, 12865.87
281.6582, 13689.55
283.5867, 12977.13
285.5151, 10919.91
287.4436, 8885.301
289.3721, 6838.231
291.3005, 5121.545
293.2290, 3864.618
295.1575, 2909.720
297.0859, 2276.135
299.0144, 1848.101
300.9429, 1530.271
302.8713, 1314.127
304.7998, 1144.003
306.7283, 1022.168
308.6567, 923.6130
310.5852, 852.8135
312.5137, 790.3805
314.4421, 728.4097
316.3706, 672.9357
318.2991, 631.1400
320.2275, 600.8214
322.1560, 573.4583
324.0845, 549.0752
326.0129, 527.4504
327.9414, 509.3441
329.8699, 492.6317
331.7983, 476.9951
333.7268, 462.1573
335.6553, 447.3138
337.5837, 433.3978
339.5122, 421.9323
341.4407, 412.8754
343.3691, 407.5397
345.2976, 407.9122
347.2261, 406.5261
349.1545, 399.5955
351.0830, 393.1913
353.0115, 391.3232
354.9399, 390.6761
356.8684, 386.7497
358.7969, 380.3251
360.7253, 373.5404
362.6538, 366.1924
364.5823, 360.4825
366.5107, 356.5856
368.4392, 354.8112
370.3677, 357.2445
372.2961, 359.8152
374.2246, 359.8818
376.1531, 357.7500
378.0815, 354.2487
380.0100, 349.3664
381.9385, 342.1147
383.8669, 330.5438
385.7954, 322.1780
387.7239, 320.2422
389.6523, 318.9016
391.5808, 316.5995
393.5093, 313.4391
395.4377, 308.8955
397.3662, 303.7479
399.2947, 299.6398
401.2231, 296.6159
403.1516, 294.4723
405.0801, 294.3304
407.0085, 292.6632
408.9370, 285.0109
410.8655, 280.7961
412.7939, 290.6706
414.7224, 301.0694
416.6509, 292.8832
418.5793, 274.7484
420.5078, 266.5723
422.4363, 269.5203
424.3647, 271.7899
426.2932, 270.9557
428.2217, 271.7581
430.1501, 277.6641
432.0786, 281.5404
434.0071, 279.5880
435.9355, 274.6507
437.8640, 266.8865
439.7925, 259.2050
441.7209, 259.4351
443.6494, 268.0464
445.5779, 272.1328
447.5063, 267.7455
449.4348, 264.8479
451.3633, 266.5649
453.2917, 266.7341
455.2202, 260.4825
457.1487, 254.4464
459.0771, 255.4671
461.0056, 259.6284
462.9341, 260.9821
464.8625, 259.7072
466.7910, 258.7549
468.7195, 258.7235
470.6479, 257.6187
472.5764, 254.1704
474.5049, 251.5327
476.4333, 250.3419
478.3618, 250.1090
480.2903, 251.6296
482.2188, 253.0887
484.1472, 252.1858
486.0757, 249.8531
488.0042, 249.2153
489.9326, 250.7630
491.8611, 250.3612
493.7896, 245.7575
495.7180, 242.8248
497.6465, 241.5484
499.5750, 242.1182
501.5034, 245.8269
503.4319, 250.0378
505.3604, 253.8507
507.2888, 256.5311
509.2173, 257.1903
511.1458, 255.9379
513.0742, 252.9241
515.0027, 247.5335
516.9312, 243.5720
518.8596, 240.3291
520.7881, 240.0140
522.7166, 246.8383
524.6450, 249.8756
526.5735, 241.4229
528.5020, 233.1909
530.4304, 234.6202
532.3589, 239.0160
534.2874, 239.1611
536.2158, 236.4340
538.1443, 235.2764
540.0728, 235.7749
542.0012, 237.0794
543.9297, 240.2025
545.8582, 241.2740
547.7866, 238.1523
549.7151, 237.3191
551.6436, 243.3263
553.5720, 247.5310
555.5005, 241.9495
557.4290, 236.1380
559.3574, 240.1272
561.2859, 247.7240
563.2144, 247.0335
565.1428, 239.4482
567.0713, 235.6938
568.9998, 236.5204
570.9282, 237.5727
572.8567, 239.6759
574.7852, 238.9342
576.7136, 232.4809
578.6421, 228.6194
580.5706, 231.8832
582.4990, 235.9301
584.4275, 237.4371
586.3560, 237.8574
588.2844, 237.1109
590.2129, 236.7926
592.1414, 241.4722
594.0698, 249.6338
595.9983, 250.6930
597.9268, 243.2264
599.8552, 241.3881
601.7837, 246.7672
603.7122, 249.9982
605.6406, 249.3530
607.5691, 247.9737
609.4976, 246.0949
611.4260, 244.9695
613.3545, 246.4246
615.2830, 247.4897
617.2114, 245.7381
619.1399, 242.9569
621.0684, 241.1496
622.9968, 240.1200
624.9253, 239.8348
626.8538, 240.1134
628.7822, 237.8699
630.7107, 232.8365
632.6392, 231.3531
634.5676, 234.6480
636.4961, 236.3779
638.4246, 234.8602
640.3530, 233.3421
642.2815, 233.1100
644.2100, 232.6467
646.1384, 230.7361
648.0669, 229.0560
649.9954, 229.8189
651.9238, 230.3294
653.8523, 226.6928
655.7808, 221.0678
657.7092, 217.2026
659.6377, 215.2161
661.5662, 216.2461
663.4946, 220.0443
665.4231, 223.6087
667.3516, 226.8234
669.2800, 229.8595
671.2085, 233.0687
673.1370, 234.3227
675.0654, 232.0839
676.9939, 230.3423
678.9224, 229.2604
680.8508, 230.6553
682.7793, 234.6263
684.7078, 242.0153
686.6362, 255.0455
688.5647, 270.1882
690.4932, 278.9922
692.4216, 290.3405
694.3501, 310.7110
696.2786, 348.1067
698.2070, 381.3642
700.1355, 445.6435
702.0640, 676.6520
703.9924, 1092.964
705.9209, 2181.770
707.8494, 4108.249
709.7778, 5564.944
711.7063, 6496.962
713.6348, 6411.885
715.5632, 4578.921
717.4917, 2902.758
719.4202, 1771.155
721.3486, 1000.776
723.2771, 658.7128
725.2056, 487.9573
727.1340, 396.8478
729.0625, 346.1474
730.9910, 312.0815
732.9194, 288.8762
734.8479, 270.9142
736.7764, 257.5070
738.7048, 247.9964
740.6333, 241.7308
742.5618, 237.4296
744.4902, 234.9272
746.4187, 234.0199
748.3472, 234.5549
750.2756, 233.8333
752.2041, 231.8065
754.1326, 226.2041
756.0610, 213.9849
757.9895, 208.2014
759.9180, 214.2429
761.8464, 219.6728
763.7749, 223.8412
765.7034, 225.3330
767.6318, 219.6571
769.5603, 217.3918
771.4888, 227.5267
773.4172, 235.5765
775.3457, 231.0866
777.2742, 224.2724
779.2026, 222.2651
781.1311, 222.3497
783.0596, 222.0697
784.9880, 222.0342
786.9165, 224.8137
788.8450, 227.2711
790.7734, 221.6317
792.7019, 212.5272
794.6304, 212.5356
796.5588, 219.5676
798.4873, 224.5604
800.4158, 227.1452
802.3442, 225.1247
804.2727, 218.0145
806.2012, 212.0269
808.1296, 206.5376
810.0581, 206.5876
811.9866, 216.5282
813.9150, 221.2267
815.8435, 215.3583
817.7720, 212.8771
819.7004, 217.3564
821.6289, 219.9683
823.5574, 217.8792
825.4858, 216.6845
827.4143, 219.3217
829.3428, 220.3090
831.2712, 215.6057
833.1997, 212.2393
835.1282, 214.2558
837.0566, 216.9207
838.9851, 219.4718
840.9136, 219.5069
842.8420, 212.5372
844.7705, 205.8805
846.6990, 205.1358
848.6274, 207.6454
850.5559, 213.0467
852.4844, 218.3724
854.4128, 219.9173
856.3413, 219.6878
858.2698, 221.1659
860.1982, 222.4722
862.1267, 218.5133
864.0552, 212.4321
865.9836, 211.5073
867.9121, 215.1009
869.8406, 223.6251
871.7690, 234.7598
873.6975, 235.0447
875.6260, 226.0211
877.5544, 222.0822
879.4829, 223.0680
881.4114, 223.4995
883.3398, 223.3339
885.2683, 224.0261
887.1968, 225.6283
889.1252, 227.7765
891.0537, 230.6906
892.9822, 232.7465
894.9106, 233.7777
896.8391, 234.7552
898.7676, 235.6499
900.6960, 236.9340
902.6245, 239.1024
904.5530, 238.8434
906.4814, 234.9568
908.4099, 233.6734
910.3384, 236.9925
912.2668, 236.6711
914.1953, 230.0822
916.1238, 225.6729
918.0522, 224.7357
919.9807, 227.4367
921.9092, 235.0447
923.8376, 241.9077
925.7661, 247.6205
927.6946, 248.7714
929.6230, 242.5509
931.5515, 237.7514
933.4800, 236.6797
935.4084, 237.9683
937.3369, 242.4264
939.2654, 246.0651
941.1938, 248.2770
943.1223, 247.6654
945.0508, 241.4952
946.9792, 237.6047
948.9077, 239.1965
950.8362, 242.4970
952.7646, 248.6301
954.6931, 251.3097
956.6216, 243.7745
958.5500, 240.8430
960.4785, 253.7025
962.4070, 262.0159
964.3354, 254.6523
966.2639, 247.5721
968.1924, 245.7950
970.1208, 246.3759
972.0493, 249.3839
973.9778, 252.8674
975.9063, 258.5501
977.8347, 260.8479
979.7632, 252.9064
981.6917, 248.5089
983.6201, 253.4932
985.5486, 262.0781
987.4771, 275.6335
989.4055, 286.8849
991.3340, 290.5156
993.2625, 295.2641
995.1909, 306.5187
997.1194, 316.2108
999.0479, 317.9113
1000.976, 322.9605
1002.905, 336.5505
1004.833, 352.4953
1006.762, 371.2657
1008.690, 387.8382
1010.619, 403.0187
1012.547, 411.6714
1014.476, 406.2958
1016.404, 403.7147
1018.333, 412.0352
1020.261, 418.6104
1022.189, 421.4115
1024.118, 419.6371
1026.046, 408.6125
1027.975, 400.6631
1029.903, 401.3198
1031.832, 400.5276
1033.760, 395.9228
1035.689, 390.3539
1037.617, 382.2637
1039.546, 376.9175
1041.474, 374.5041
1043.403, 375.9400
1045.331, 382.3807
1047.260, 390.5100
1049.188, 398.9178
1051.116, 411.2124
1053.045, 424.6049
1054.973, 448.0811
1056.902, 468.9446
1058.830, 538.9340
1060.759, 665.8766
1062.687, 835.6193
1064.616, 1080.396
1066.544, 1218.140
1068.473, 1197.506
1070.401, 1229.479
1072.330, 1220.415
1074.258, 1500.122
1076.187, 1707.646
1078.115, 6692.928
1080.043, 16513.39
1081.972, 36560.87
1083.900, 65721.55
1085.829, 72359.01
1087.757, 58307.77
1089.686, 39932.47
1091.614, 19308.63
1093.543, 7925.063
1095.471, 3962.323
1097.400, 1937.990
1099.328, 1320.762
1101.257, 961.0224
1103.185, 780.9658
1105.114, 658.6140
1107.042, 578.3566
1108.970, 526.6285
1110.899, 491.2423
1112.827, 459.5927
1114.756, 433.2567
1116.684, 415.4405
1118.613, 401.7324
1120.541, 390.0215
1122.470, 379.2413
1124.398, 368.3510
1126.327, 358.7730
1128.255, 352.7062
1130.184, 345.3587
1132.112, 333.0896
1134.041, 322.1510
1135.969, 314.1184
1137.897, 310.6127
1139.826, 315.2773
1141.754, 313.5787
1143.683, 298.6009
1145.611, 291.1155
1147.540, 296.7140
1149.468, 300.7415
1151.397, 301.8965
1153.325, 297.2569
1155.254, 285.7404
1157.182, 277.7267
1159.111, 273.5398
1161.039, 276.4346
1162.968, 285.2767
1164.896, 286.4572
1166.824, 282.0624
1168.753, 281.6785
1170.681, 283.8184
1172.610, 284.4046
1174.538, 284.5133
1176.467, 287.1403
1178.395, 289.5761
1180.324, 287.2979
1182.252, 283.9743
1184.181, 281.8461
1186.109, 281.9899
1188.038, 287.5550
1189.966, 292.0173
1191.895, 291.5813
1193.823, 290.3561
1195.751, 289.1813
1197.680, 288.7220
1199.608, 289.5373
1201.537, 289.8378
1203.465, 289.4712
1205.394, 286.6895
1207.322, 280.9797
1209.251, 278.7878
1211.179, 280.5547
1213.108, 282.9550
1215.036, 285.8184
1216.965, 290.5214
1218.893, 295.6392
1220.822, 295.4044
1222.750, 291.9020
1224.678, 288.5172
1226.607, 285.9868
1228.535, 287.1537
1230.464, 287.5737
1232.392, 280.0391
1234.321, 273.6410
1236.249, 276.0908
1238.178, 279.6189
1240.106, 281.5443
1242.035, 282.1117
1243.963, 279.2716
1245.892, 279.9509
1247.820, 286.0299
1249.749, 292.8310
1251.677, 300.5661
1253.605, 299.1735
1255.534, 289.1028
1257.462, 290.4696
1259.391, 299.7826
1261.319, 294.6277
1263.248, 283.1808
1265.176, 287.4588
1267.105, 298.1452
1269.033, 303.8976
1270.962, 306.8639
1272.890, 308.5125
1274.819, 309.0741
1276.747, 306.7151
1278.676, 306.6361
1280.604, 313.6246
1282.532, 318.2512
1284.461, 314.8239
1286.389, 317.0966
1288.318, 329.3723
1290.246, 332.4220
1292.175, 325.2829
1294.103, 322.5178
1296.032, 323.8648
1297.960, 328.6314
1299.889, 333.7614
1301.817, 329.8399
1303.746, 323.8733
1305.674, 326.9055
1307.603, 328.4255
1309.531, 317.2253
1311.459, 307.4660
1313.388, 308.9450
1315.316, 307.1727
1317.245, 293.0908
1319.173, 288.2534
1321.102, 301.2209
1323.030, 304.2255
1324.959, 296.2313
1326.887, 288.8243
1328.816, 282.1794
1330.744, 276.4132
1332.673, 272.7431
1334.601, 276.9785
1336.530, 281.2292
1338.458, 273.5260
1340.386, 266.6581
1342.315, 269.1848
1344.243, 271.9384
1346.172, 271.2027
1348.100, 271.1404
1350.029, 273.4391
1351.957, 271.5132
1353.886, 263.8918
1355.814, 264.0615
1357.743, 270.2385
1359.671, 268.7251
1361.600, 263.6576
1363.528, 264.5896
1365.457, 267.7993
1367.385, 268.6845
1369.313, 270.4326
1371.242, 275.3020
1373.170, 280.6325
1375.099, 286.6009
1377.027, 288.3676
1378.956, 284.7563
1380.884, 278.9803
1382.813, 271.7440
1384.741, 270.9822
1386.670, 275.1732
1388.598, 280.7867
1390.527, 285.4909
1392.455, 285.4309
1394.384, 282.8925
1396.312, 276.9398
1398.240, 274.0845
1400.169, 277.3061
1402.097, 281.5094
1404.026, 285.3482
1405.954, 294.7403
1407.883, 309.6010
1409.811, 319.7388
1411.740, 325.6306
1413.668, 329.3923
1415.597, 333.1230
1417.525, 340.4516
1419.454, 348.8412
1421.382, 351.0253
1423.311, 362.2936
1425.239, 379.0445
1427.167, 425.9645
1429.096, 502.8207
1431.024, 675.9069
1432.953, 923.5695
1434.881, 1056.198
1436.810, 1062.474
1438.738, 894.9329
1440.667, 672.9647
1442.595, 510.2226
1444.524, 396.5541
1446.452, 340.9498
1448.381, 305.7853
1450.309, 283.9308
1452.238, 277.4315
1454.166, 286.8232
1456.094, 280.9597
1458.023, 265.0372
1459.951, 263.3569
1461.880, 268.1571
1463.808, 270.3261
1465.737, 270.0995
1467.665, 266.6988
1469.594, 262.6597
1471.522, 256.5791
1473.451, 255.6901
1475.379, 261.4579
1477.308, 264.6412
1479.236, 264.5811
1481.165, 253.5672
1483.093, 242.7207
1485.021, 252.3673
1486.950, 263.7514
1488.878, 263.4083
1490.807, 261.9430
1492.735, 263.0750
1494.664, 262.5375
1496.592, 259.4160
1498.521, 261.1696
1500.449, 266.3970
1502.378, 270.6041
1504.306, 272.1641
1506.235, 266.4392
1508.163, 261.8925
1510.092, 263.9007
1512.020, 266.4240
1513.948, 268.4937
1515.877, 268.0302
1517.805, 265.0499
1519.734, 258.7614
1521.662, 253.3732
1523.591, 263.7094
1525.519, 274.9963
1527.448, 274.5422
1529.376, 270.4208
1531.305, 264.3194
1533.233, 260.1133
1535.162, 258.1791
1537.090, 267.0291
1539.019, 281.8808
1540.947, 280.7917
1542.875, 272.9644
1544.804, 269.0625
1546.732, 266.5540
1548.661, 263.6068
1550.589, 265.0662
1552.518, 272.8201
1554.446, 269.9720
1556.375, 258.5363
1558.303, 259.9425
1560.232, 267.7397
1562.160, 276.1801
1564.089, 277.7592
1566.017, 262.4536
1567.946, 253.9253
1569.874, 257.5157
1571.802, 265.4311
1573.731, 274.9525
1575.659, 272.1542
1577.588, 263.9658
1579.516, 262.9170
1581.445, 261.7064
1583.373, 251.0900
1585.302, 248.3367
1587.230, 257.3308
1589.159, 268.3021
1591.087, 277.8621
1593.016, 268.2619
1594.944, 252.8911
1596.873, 253.0732
1598.801, 256.4148
1600.729, 254.0860
1602.658, 255.6274
1604.586, 263.0184
1606.515, 266.9978
1608.443, 267.7351
1610.372, 268.9075
1612.300, 268.7633
1614.229, 264.4967
1616.157, 258.8522
1618.086, 249.6056
1620.014, 249.6171
1621.943, 260.6156
1623.871, 256.4072
1625.800, 244.4686
1627.728, 249.6833
1629.656, 257.8964
1631.585, 255.8768
1633.513, 253.2154
1635.442, 252.2934
1637.370, 255.1572
1639.299, 261.1104
1641.227, 256.6935
1643.156, 249.6520
1645.084, 255.2758
1647.013, 259.1787
1648.941, 247.5820
1650.870, 244.0839
1652.798, 254.6934
1654.727, 259.7139
1656.655, 260.7810
1658.583, 263.2384
1660.512, 266.1244
1662.440, 269.9111
1664.369, 270.9146
1666.297, 268.2202
1668.226, 259.1896
1670.154, 245.2888
1672.083, 242.1079
1674.011, 243.1640
1675.940, 238.5789
1677.868, 236.3864
1679.797, 241.3795
1681.725, 243.8348
1683.654, 242.3766
1685.582, 242.0472
1687.510, 243.1520
1689.439, 246.9168
1691.367, 252.0208
1693.296, 260.8028
1695.224, 257.1239
1697.153, 236.6356
1699.081, 229.9502
1701.010, 232.3769
1702.938, 231.4507
1704.867, 228.1049
1706.795, 221.9106
1708.724, 217.0860
1710.652, 214.4954
1712.581, 215.2000
1714.509, 218.1359
1716.438, 220.0899
1718.366, 222.6019
1720.294, 227.1269
1722.223, 233.0831
1724.151, 240.6694
1726.080, 241.4214
1728.008, 238.0148
1729.937, 241.3461
1731.865, 246.9439
1733.794, 248.2741
1735.722, 251.9792
1737.651, 257.3105
1739.579, 298.0594
1741.508, 391.1477
1743.436, 611.3625
1745.365, 839.5093
1747.293, 1014.060
1749.221, 1048.672
1751.150, 926.0461
1753.078, 754.7935
1755.007, 573.0876
1756.935, 454.4931
1758.864, 371.9123
1760.792, 308.0938
1762.721, 269.1639
1764.649, 255.7009
1766.578, 244.5158
1768.506, 236.0809
1770.435, 236.2646
1772.363, 234.6723
1774.292, 219.2057
1776.220, 215.5365
1778.148, 225.1824
1780.077, 224.3386
1782.005, 220.0751
1783.934, 225.9673
1785.862, 229.5916
1787.791, 222.2614
1789.719, 218.1595
1791.648, 217.5756
1793.576, 217.9757
1795.505, 221.2378
1797.433, 235.3019
1799.362, 238.8656
1801.290, 218.2896
1803.219, 209.5191
1805.147, 208.9281
1807.075, 203.9985
1809.004, 199.1611
1810.932, 197.5281
1812.861, 193.5961
1814.789, 186.7551
1816.718, 183.9267
1818.646, 184.8615
1820.575, 192.9071
1822.503, 199.2008
1824.432, 199.8913
1826.360, 200.2311
1828.289, 199.7786
1830.217, 193.0460
1832.146, 188.5223
1834.074, 193.2903
1836.002, 196.8863
1837.931, 197.1444
1839.859, 199.2904
1841.788, 202.0282
1843.716, 202.5212
1845.645, 201.5470
1847.573, 200.1713
1849.502, 192.2343
1851.430, 180.2200
1853.359, 185.4690
1855.287, 194.6045
1857.216, 195.4224
1859.144, 190.7136
1861.073, 181.9940
1863.001, 184.1834
1864.929, 190.4367
1866.858, 186.2410
1868.786, 183.2208
1870.715, 187.0422
1872.643, 188.4967
1874.572, 187.3199
1876.500, 191.0392
1878.429, 193.6366
1880.357, 186.2917
1882.286, 182.4865
1884.214, 183.7722
1886.143, 182.0553
1888.071, 179.0062
1890.000, 177.7540
1891.928, 179.7762
1893.856, 182.8466
1895.785, 192.3390
1897.713, 201.0446
1899.642, 188.8715
1901.570, 173.5857
1903.499, 161.8810
1905.427, 162.7609
1907.356, 169.5114
1909.284, 166.9655
1911.213, 163.9869
1913.141, 162.7778
1915.070, 163.3064
1916.998, 166.5654
1918.927, 165.6471
1920.855, 163.6400
1922.783, 167.0788
1924.712, 169.2500
1926.640, 165.6894
1928.569, 158.2573
1930.497, 155.6871
1932.426, 163.0629
1934.354, 166.1309
1936.283, 163.9467
1938.211, 170.9933
1940.140, 179.5442
1942.068, 181.1185
1943.997, 177.9030
1945.925, 168.8814
1947.854, 163.4536
1949.782, 162.1299
1951.710, 171.3731
1953.639, 176.7517
1955.567, 170.7522
1957.496, 170.3134
1959.424, 175.6900
1961.353, 182.0193
1963.281, 180.3313
1965.210, 167.9196
1967.138, 165.0872
1969.067, 167.7168
1970.995, 169.2866
1972.924, 160.6870
1974.852, 130.0942
1976.781, 133.5726
1978.709, 162.8603
1980.637, 163.0886
1982.566, 158.5097
1984.494, 162.9581
1986.423, 167.0183
1988.351, 168.1169
1990.280, 170.6987
1992.208, 168.7666
1994.137, 155.5332
1996.065, 154.3591
1997.994, 164.4840
1999.922, 167.9538
2001.851, 169.3270
2003.779, 172.0871
2005.708, 174.6212
2007.636, 174.5665
2009.564, 175.1631
2011.493, 173.0591
2013.421, 160.9272
2015.350, 159.8983
2017.278, 166.2107
2019.207, 162.7409
2021.135, 159.7833
2023.064, 162.0534
2024.992, 158.9658
2026.921, 158.4250
2028.849, 170.1906
2030.778, 174.0866
2032.706, 164.3309
2034.635, 161.6242
2036.563, 161.0218
2038.491, 154.1931
2040.420, 153.0634
2042.348, 163.0331
2044.277, 163.7778
2046.205, 158.2712
2048.134, 153.2417
2050.062, 157.9169
2051.991, 172.7121
2053.919, 170.1150
2055.848, 162.0976
2057.776, 158.1476
2059.705, 162.4830
2061.633, 173.0543
2063.562, 161.0732
2065.490, 150.3837
2067.418, 158.3181
2069.347, 162.6822
2071.275, 163.4246
2073.204, 164.7968
2075.132, 164.0260
2077.061, 161.4496
2078.989, 159.4252
2080.918, 158.4157
2082.846, 162.1585
2084.775, 161.2745
2086.703, 155.1987
2088.632, 149.1186
2090.560, 146.2769
2092.489, 156.9414
2094.417, 163.5526
2096.345, 164.1717
2098.274, 163.0058
2100.202, 163.5912
2102.131, 168.7424
2104.059, 165.9738
2105.988, 160.9326
2107.916, 165.5708
2109.845, 165.2808
2111.773, 154.5708
2113.702, 161.3252
2115.630, 174.0897
2117.559, 155.3160
2119.487, 146.0029
2121.416, 155.8908
2123.344, 170.8884
2125.272, 181.8725
2127.201, 170.3621
2129.129, 171.9256
2131.058, 187.2026
2132.986, 187.1865
2134.915, 182.8189
2136.843, 181.5691
2138.772, 182.6198
2140.700, 185.6618
2142.629, 188.7259
2144.557, 190.8486
2146.486, 192.4221
2148.414, 200.4708
2150.343, 206.7780
2152.271, 200.7042
2154.199, 196.1865
2156.128, 193.2921
2158.056, 184.5334
2159.985, 179.7624
2161.913, 185.7155
2163.842, 187.9968
2165.770, 187.0926
2167.699, 182.4830
2169.627, 181.9127
2171.556, 185.5658
2173.484, 182.8333
2175.413, 178.6681
2177.341, 175.5177
2179.270, 176.4353
2181.198, 179.1537
2183.126, 179.8483
2185.055, 177.5625
2186.983, 172.5321
2188.912, 178.1293
2190.840, 182.1599
2192.769, 174.9838
2194.697, 177.7832
2196.626, 184.5424
2198.554, 175.3917
2200.483, 169.8640
2202.411, 172.6958
2204.340, 177.9593
2206.268, 179.6540
2208.197, 172.1929
2210.125, 169.9769
2212.053, 171.4572
2213.982, 168.0898
2215.910, 169.2397
2217.839, 177.5610
2219.767, 180.1758
2221.696, 178.3014
2223.624, 173.2620
2225.553, 168.5723
2227.481, 166.4556
2229.410, 171.5078
2231.338, 173.2350
2233.267, 168.3811
2235.195, 173.6207
2237.124, 177.7024
2239.052, 171.6446
2240.980, 168.3974
2242.909, 168.6408
2244.837, 168.8900
2246.766, 166.1513
2248.694, 166.2817
2250.623, 173.1285
2252.551, 175.1634
2254.480, 171.4388
2256.408, 171.7495
2258.337, 172.3707
2260.265, 173.6814
2262.194, 172.2839
2264.122, 167.7866
2266.051, 166.7949
2267.979, 167.3015
2269.907, 170.4577
2271.836, 173.4265
2273.764, 173.1301
2275.693, 173.2110
2277.621, 174.6895
2279.550, 172.8946
2281.478, 166.1587
2283.407, 168.0323
2285.335, 180.5017
2287.264, 183.1503
2289.192, 177.6435
2291.121, 166.0681
2293.049, 171.2240
2294.978, 179.4924
2296.906, 172.6772
2298.834, 179.5980
2300.763, 193.5141
2302.691, 191.4391
2304.620, 183.9264
2306.548, 173.2540
2308.477, 171.7734
2310.405, 170.8617
2312.334, 171.9177
2314.262, 180.4997
2316.191, 184.6744
2318.119, 182.9126
2320.048, 177.7383
2321.976, 171.9645
2323.905, 172.8814
2325.833, 176.6360
2327.761, 178.1885
2329.690, 172.3826
2331.618, 174.7851
2333.547, 184.3216
2335.475, 178.2484
2337.404, 170.1712
2339.332, 173.7343
2341.261, 185.5382
2343.189, 193.7271
2345.118, 190.5066
2347.046, 181.1718
2348.975, 170.0874
2350.903, 176.0563
2352.832, 180.7707
2354.760, 182.1372
2356.688, 180.2157
2358.617, 178.9004
2360.545, 182.3269
2362.474, 188.1952
2364.402, 189.1563
2366.331, 186.5139
2368.259, 189.4456
2370.188, 197.5172
2372.116, 188.8637
2374.045, 177.5642
2375.973, 182.4565
2377.902, 195.0105
2379.830, 195.2487
2381.759, 185.6449
2383.687, 185.6713
2385.615, 192.7523
2387.544, 193.2643
2389.472, 183.7606
2391.401, 183.2526
2393.329, 192.9510
2395.258, 195.9677
2397.186, 189.5238
2399.115, 182.5247
2401.043, 184.9978
2402.972, 189.7571
2404.900, 183.0201
2406.829, 183.7915
2408.757, 185.5890
2410.686, 182.7268
2412.614, 186.5814
2414.542, 184.5933
2416.471, 176.9406
2418.399, 177.8653
2420.328, 183.2583
2422.256, 181.3109
2424.185, 176.6086
2426.113, 173.4933
2428.042, 184.4743
2429.970, 189.7679
2431.899, 175.6713
2433.827, 178.8031
2435.756, 182.6390
2437.684, 187.2542
2439.613, 188.0552
2441.541, 181.7038
2443.469, 180.4450
2445.398, 189.5647
2447.326, 195.1945
2449.255, 193.1570
2451.183, 195.4708
2453.112, 197.2974
2455.040, 193.3821
2456.969, 185.3504
2458.897, 182.0394
2460.826, 187.2802
2462.754, 185.6208
2464.683, 184.2857
2466.611, 182.7489
2468.540, 182.5404
2470.468, 186.6870
2472.396, 178.7166
2474.325, 177.8582
2476.253, 182.8992
2478.182, 184.0136
2480.110, 184.3077
2482.039, 189.0574
2483.967, 188.7066
2485.896, 193.8998
2487.824, 197.2949
2489.753, 188.8427
2491.681, 185.0257
2493.610, 178.4459
2495.538, 183.0235
2497.467, 189.1249
2499.395, 194.2460
2501.323, 189.9921
2503.252, 184.1456
2505.180, 182.3891
2507.109, 185.4225
2509.037, 189.6445
2510.966, 194.6162
2512.894, 192.9834
2514.823, 186.8008
2516.751, 181.4681
2518.680, 192.3217
2520.608, 197.7695
2522.537, 187.3172
2524.465, 179.1940
2526.394, 174.0719
2528.322, 177.9098
2530.250, 190.3449
2532.179, 192.5159
2534.107, 188.1959
2536.036, 185.5671
2537.964, 184.3202
2539.893, 187.1226
2541.821, 174.7400
2543.750, 165.9874
2545.678, 178.2941
2547.607, 175.5795
2549.535, 180.9973
2551.464, 195.7794
2553.392, 191.5148
2555.321, 184.1785
2557.249, 180.7946
2559.177, 181.8443
2561.106, 185.0115
2563.034, 186.5817
2564.963, 191.6141
2566.891, 192.0666
2568.820, 186.4353
2570.748, 186.0834
2572.677, 183.3464
2574.605, 181.6938
2576.534, 177.6781
2578.462, 176.6414
2580.391, 185.7904
2582.319, 195.0815
2584.248, 196.3296
2586.176, 193.0996
2588.104, 192.7044
2590.033, 189.4214
2591.961, 184.5148
2593.890, 180.4153
2595.818, 179.4028
2597.747, 183.9579
2599.675, 195.0576
2601.604, 190.0802
2603.532, 180.3494
2605.461, 186.2439
2607.389, 187.2880
2609.318, 190.0694
2611.246, 202.9748
2613.175, 197.5388
2615.103, 189.1903
2617.031, 194.2171
2618.960, 193.3705
2620.888, 191.4980
2622.817, 197.5036
2624.745, 194.6311
2626.674, 187.5440
2628.602, 182.7928
2630.531, 190.0119
2632.459, 195.7935
2634.388, 196.7393
2636.316, 191.9530
2638.245, 192.7523
2640.173, 200.4090
2642.102, 195.4251
2644.030, 190.6638
2645.958, 187.0032
2647.887, 183.7096
2649.815, 180.7455
2651.744, 180.3580
2653.672, 187.4706
2655.601, 192.4402
2657.529, 193.0914
2659.458, 186.0803
2661.386, 191.4587
2663.315, 197.9718
2665.243, 192.7708
2667.172, 194.1572
2669.100, 195.4640
2671.029, 191.1107
2672.957, 184.6419
2674.885, 182.8676
2676.814, 187.2885
2678.742, 186.6305
2680.671, 188.8063
2682.599, 194.4007
2684.528, 193.2764
2686.456, 188.5401
2688.385, 183.9237
2690.313, 194.2493
2692.242, 188.6442
2694.170, 173.6070
2696.099, 171.1526
2698.027, 184.7646
2699.956, 193.4668
2701.884, 182.9258
2703.813, 183.3955
2705.741, 185.2619
2707.669, 183.0023
2709.598, 186.4799
2711.526, 187.3084
2713.455, 180.3532
2715.383, 185.1926
2717.312, 190.0196
2719.240, 188.3980
2721.169, 173.5586
2723.097, 171.6112
2725.026, 175.5995
2726.954, 169.1458
2728.883, 177.1017
2730.811, 180.7845
2732.740, 165.6911
2734.668, 169.8721
2736.596, 178.2594
2738.525, 179.3818
2740.453, 170.3852
2742.382, 169.4261
2744.310, 180.0511
2746.239, 175.0110
2748.167, 176.5757
2750.096, 183.3644
2752.024, 177.5927
2753.953, 172.1142
2755.881, 176.6533
2757.810, 185.9008
2759.738, 188.5536
2761.667, 188.4346
2763.595, 189.7448
2765.523, 173.8755
2767.452, 172.0868
2769.380, 184.4374
2771.309, 182.0087
2773.237, 175.0299
2775.166, 171.0948
2777.094, 172.5486
2779.023, 166.1198
2780.951, 168.2089
2782.880, 175.4529
2784.808, 177.4200
2786.737, 175.0658
2788.665, 168.8166
2790.594, 170.8057
2792.522, 173.6651
2794.450, 174.0835
2796.379, 163.9077
2798.307, 169.6340
2800.236, 176.3203
2802.164, 169.4088
2804.093, 168.4592
2806.021, 173.3740
2807.950, 177.8070
2809.878, 174.2613
2811.807, 166.3688
2813.735, 160.6947
2815.664, 159.1190
2817.592, 164.7920
2819.521, 171.3336
2821.449, 159.4633
2823.377, 160.1699
2825.306, 163.8797
2827.234, 167.3530
2829.163, 166.8182
2831.091, 155.2055
2833.020, 154.9410
2834.948, 154.6009
2836.877, 152.6172
2838.805, 147.7714
2840.734, 145.1128
2842.662, 156.3419
2844.591, 161.1454
2846.519, 151.0431
2848.448, 157.0349
2850.376, 153.5908
2852.304, 148.6431
2854.233, 159.6620
2856.161, 163.9207
2858.090, 159.6049
2860.018, 150.6706
2861.947, 145.6296
2863.875, 154.6383
2865.804, 164.1444
2867.732, 163.8611
2869.661, 151.7247
2871.589, 150.2361
2873.518, 160.9563
2875.446, 159.8616
2877.375, 159.4383
2879.303, 150.6228
2881.231, 144.5413
2883.160, 154.6035
2885.088, 160.7876
2887.017, 158.8054
2888.945, 147.2383
2890.874, 150.5961
2892.802, 159.5692
2894.731, 159.1309
2896.659, 145.2632
2898.588, 138.4488
2900.516, 161.4701
2902.445, 160.4991
2904.373, 151.7262
2906.302, 150.5354
2908.230, 150.2452
2910.158, 148.5085
2912.087, 153.2045
2914.015, 150.2861
2915.944, 145.7043
2917.872, 136.9349
2919.801, 139.9779
2921.729, 140.5211
2923.658, 139.7433
2925.586, 140.5719
2927.515, 140.5113
2929.443, 142.7565
2931.372, 143.5943
2933.300, 134.6892
2935.229, 138.9291
2937.157, 140.9726
2939.085, 137.6496
2941.014, 146.8683
2942.942, 148.9004
2944.871, 139.6405
2946.799, 138.0481
2948.728, 146.3218
2950.656, 134.6137
2952.585, 127.8425
2954.513, 127.7675
2956.442, 129.7245
2958.370, 136.9244
2960.299, 137.8708
2962.227, 135.2706
2964.156, 133.1229
2966.084, 134.9018
2968.012, 135.7933
2969.941, 129.2146
2971.869, 132.0288
2973.798, 138.1537
2975.726, 128.5699
2977.655, 130.5180
2979.583, 132.5923
2981.512, 132.5045
2983.440, 131.0554
2985.369, 127.6253
2987.297, 127.7484
2989.226, 122.3629
2991.154, 114.5340
2993.083, 116.7920
2995.011, 119.2199
2996.939, 118.5115
2998.868, 115.2019
3000.796, 119.5306
3002.725, 128.7664
3004.653, 129.5613
3006.582, 117.9600
3008.510, 107.9920
3010.439, 114.0801
3012.367, 109.6251
3014.296, 107.7195
3016.224, 119.5130
3018.153, 111.5823
3020.081, 109.7067
3022.010, 114.6459
3023.938, 117.6642
3025.866, 127.3490
3027.795, 126.2522
3029.723, 119.4991
3031.652, 117.5231
3033.580, 115.8089
3035.509, 113.3371
3037.437, 112.0731
3039.366, 107.6410
3041.294, 119.4476
3043.223, 116.0709
3045.151, 106.4800
3047.080, 102.5728
3049.008, 105.9297
3050.937, 107.6985
3052.865, 108.9525
3054.793, 111.4190
3056.722, 102.4886
3058.650, 99.58335
3060.579, 102.2821
3062.507, 102.9056
3064.436, 102.9708
3066.364, 103.6401
3068.293, 100.7256
3070.221, 99.97160
3072.150, 94.56882
3074.078, 97.72151
3076.007, 109.6625
3077.935, 98.04678
3079.864, 98.02963
3081.792, 99.06237
3083.720, 94.90152
3085.649, 99.63712
3087.577, 95.43712
3089.506, 93.92892
3091.434, 97.85642
3093.363, 85.35416
3095.291, 82.04317
3097.220, 84.54086
3099.148, 86.69605
3101.077, 82.39507
3103.005, 86.06942
3104.934, 89.91695
3106.862, 85.41383
3108.791, 91.31822
3110.719, 87.10458
3112.647, 76.97802
3114.576, 72.27441
3116.504, 82.12511
3118.433, 84.66553
3120.361, 83.12162
3122.290, 89.48460
3124.218, 76.67293
3126.147, 72.91729
3128.075, 78.33104
3130.004, 81.43230
3131.932, 82.84971
3133.861, 74.95067
3135.789, 66.79046
3137.718, 74.63651
3139.646, 79.72630
3141.574, 79.23220
3143.503, 77.71808
3145.431, 84.15187
3147.360, 73.57392
3149.288, 70.72942
3151.217, 75.12460
3153.145, 77.11316
3155.074, 66.45510
3157.002, 68.02055
3158.931, 75.15659
3160.859, 71.82568
3162.788, 80.80462
3164.716, 79.86431
3166.645, 69.34440
3168.573, 54.77279
3170.501, 64.92252
3172.430, 68.95753
3174.358, 65.48736
3176.287, 60.50137
3178.215, 72.10873
3180.144, 62.21380
3182.072, 54.40253
3184.001, 72.25233
3185.929, 77.78838
3187.858, 63.29462
3189.786, 54.98103
3191.715, 60.95432
3193.643, 61.04755
3195.572, 69.09338
3197.500, 72.02200
3199.428, 66.74759
3201.357, 58.13874
3203.285, 54.72939
3205.214, 59.38431
3207.142, 63.62398
3209.071, 59.35007
3210.999, 65.31205
3212.928, 65.18568
3214.856, 61.66543
3216.785, 58.81764
3218.713, 59.46953
3220.642, 63.60213
3222.570, 54.45967
3224.499, 34.13841
3226.427, 62.17545
3228.355, 67.15596
3230.284, 60.49825
3232.212, 57.21911
3234.141, 59.26884
3236.069, 62.99248
3237.998, 55.57166
3239.926, 44.61951
3241.855, 64.35316
3243.783, 67.30272
3245.712, 71.63197
3247.640, 70.67007
3249.569, 60.06931
3251.497, 64.01801
3253.426, 56.57769
3255.354, 52.34602
3257.282, 58.32686
3259.211, 52.34044
3261.139, 47.38750
3263.068, 45.22375
3264.996, 49.76280
3266.925, 68.79002
3268.853, 67.36688
3270.782, 58.41570
3272.710, 51.55608
3274.639, 48.49511
3276.567, 51.11875
3278.496, 50.42673
3280.424, 45.93602
3282.353, 45.98504
3284.281, 56.25928
3286.209, 52.26111
3288.138, 49.62223
3290.066, 51.87976
3291.995, 51.98507
3293.923, 41.23103
3295.852, 44.52963
3297.780, 53.90414
3299.709, 54.60816
3301.637, 49.70885
3303.566, 68.04854
3305.494, 66.02676
3307.423, 49.99798
3309.351, 48.36266
3311.280, 43.95214
3313.208, 46.32045
3315.136, 49.68379
3317.065, 52.06247
3318.993, 49.09964
3320.922, 47.77048
3322.850, 41.85343
3324.779, 37.42466
3326.707, 43.36889
3328.636, 43.23203
3330.564, 34.53152
3332.493, 33.21443
3334.421, 41.05130
3336.350, 31.25502
3338.278, 31.32699
3340.207, 45.62127
3342.135, 49.11642
3344.063, 30.43345
3345.992, 50.03113
3347.920, 44.66546
3349.849, 41.54196
3351.777, 44.37548
3353.706, 35.12249
3355.634, 40.49562
3357.563, 41.43677
3359.491, 44.10513
3361.420, 49.02068
3363.348, 36.76600
3365.277, 39.01694
3367.205, 30.74302
3369.134, 25.67886
3371.062, 39.17042
3372.990, 45.42056
3374.919, 42.05285
3376.847, 35.66306
3378.776, 34.05157
3380.704, 44.40751
3382.633, 35.32885
3384.561, 34.16571
3386.490, 33.89189
3388.418, 29.67332
3390.347, 24.79885
3392.275, 41.13565
3394.204, 38.69741
3396.132, 36.70402
3398.061, 44.12062
3399.989, 45.12156
3401.917, 37.43660
3403.846, 38.97683
3405.774, 37.29812
3407.703, 28.29665
3409.631, 35.08981
3411.560, 27.74324
3413.488, 25.54054
3415.417, 32.77336
3417.345, 42.69289
3419.274, 37.69146
3421.202, 28.81858
3423.131, 27.07759
3425.059, 31.23444
3426.988, 35.18351
3428.916, 30.53845
3430.844, 36.63012
3432.773, 28.80070
3434.701, 21.30846
3436.630, 27.06364
3438.558, 16.50297
3440.487, 30.26506
3442.415, 38.91587
3444.344, 39.90665
3446.272, 39.83960
3448.201, 36.93017
3450.129, 33.45044
3452.058, 26.27318
3453.986, 15.99326
3455.915, 10.84747
3457.843, 33.76698
3459.771, 28.01779
3461.700, 28.99808
3463.628, 27.73230
3465.557, 22.34478
3467.485, 46.44272
3469.414, 34.89091
3471.342, 22.65993
3473.271, 24.17610
3475.199, 34.10698
3477.128, 35.81284
3479.056, 46.02160
3480.985, 43.02955
3482.913, 34.73330
3484.842, 26.91944
3486.770, 18.84997
3488.698, 15.29673
3490.627, 27.21678
3492.555, 26.74705
3494.484, 16.67775
3496.412, 15.09973
3498.341, 37.26847
3500.269, 26.81363
3502.198, 17.10893
3504.126, 18.92669
3506.055, 23.74820
3507.983, 12.86261
3509.912, 21.56369
3511.840, 34.77219
3513.769, 42.70298
3515.697, 39.33431
3517.625, 24.33810
3519.554, 29.61040
3521.482, 32.34760
3523.411, 29.33008
3525.339, 23.12465
3527.268, 21.11475
3529.196, 38.81714
3531.125, 36.13518
3533.053, 38.26790
3534.982, 42.78580
3536.910, 41.01865
3538.839, 29.96179
3540.767, 16.98572
3542.696, 11.65024
3544.624, 21.34402
3546.552, 30.99262
3548.481, 26.48988
3550.409, 15.00254
3552.338, 30.78357
3554.266, 38.31238
3556.195, 31.45960
3558.123, 22.83786
3560.052, 24.98007
3561.980, 14.69636
3563.909, 19.99883
3565.837, 27.63263
3567.766, 25.18257
3569.694, 15.06924
3571.623, 17.30548
3573.551, 20.78432
3575.479, 14.77807
3577.408, 13.52023
3579.336, 25.55466
3581.265, 40.00425
3583.193, 8.605082
3585.122, 21.11257
3587.050, 27.75869
3588.979, 26.88522
3590.907, 20.93619
3592.836, 11.49363
3594.764, 25.47204
3596.693, 28.22289
3598.621, 31.66361
3600.550, 27.92250
3602.478, 16.88971
3604.406, 10.12220
3606.335, 14.89445
3608.263, 7.890988
3610.192, 7.865403
3612.120, 12.23516
3614.049, 12.01135
3615.977, 6.347945
3617.906, 25.83598
3619.834, 10.37227
3621.763, 12.02662
3623.691, 10.22763
3625.620, 6.752869
3627.548, 28.03647
3629.477, 16.83949
3631.405, 10.76445
3633.333, 7.890940
3635.262, 18.38874
3637.190, 30.80972
3639.119, 23.26468
3641.047, 1.191268
3642.976, 19.10047
3644.904, 24.46490
3646.833, 22.76483
3648.761, 18.78830
3650.690, 11.09034
3652.618, 22.08146
3654.547, 20.54561
3656.475, 9.393063
3658.404, 10.55853
3660.332, 11.91563
3662.260, 4.956885
3664.189, 21.19235
3666.117, 11.69103
3668.046, 18.70992
3669.974, 8.611829
3671.903, 4.035371
3673.831, 17.73429
3675.760, 25.95869
3677.688, 24.49974
3679.617, 21.30326
3681.545, 17.80214
3683.474, 8.327608
3685.402, 2.792009
3687.331, 10.69487
3689.259, 15.50641
3691.188, 20.82799
3693.116, 21.15800
3695.044, 21.93990
3696.973, 12.27250
3698.901, 2.483053
3700.830, 16.70516
3702.758, 17.26963
3704.687, 20.23437
3706.615, 25.58271
3708.544, 16.13602
3710.472, 6.865696
3712.401, 12.56077
3714.329, 16.44243
3716.258, 15.95000
3718.186, 2.832176
3720.115, 0.4506454
3722.043, 6.251472
3723.971, 16.96900
3725.900, 29.03362
3727.828, 21.72013
3729.757, 22.60828
3731.685, 18.89761
3733.614, 24.14101
3735.542, 17.85219
3737.471, 6.261003
3739.399, 10.90278
3741.328, 14.55002
3743.256, 19.01284
3745.185, 4.470951
3747.113, 6.838462
3749.042, 11.79589
3750.970, 7.063038
3752.898, 4.3571141E-02
3754.827, -2.036859
3756.755, 8.733266
3758.684, -5.5389781E-02
3760.612, 2.338980
3762.541, 10.90875
3764.469, 15.15156
3766.398, 13.23162
3768.326, 7.323004
3770.255, 9.025670
3772.183, 0.4742818
3774.112, -4.872805
3776.040, 6.950825
3777.969, 7.698732
3779.897, -3.897625
3781.825, 15.23080
3783.754, 15.73769
3785.682, 9.147189
3787.611, 13.21809
3789.539, 13.55420
3791.468, 3.379197
3793.396, 7.098204
3795.325, 34.99941
3797.253, 11.17714
3799.182, 5.732892
3801.110, 8.532263
3803.039, 8.257909
3804.967, 14.87670
3806.896, 23.36697
3808.824, 22.64420
3810.752, 11.72175
3812.681, 3.075468
3814.609, 11.12540
3816.538, 8.477540
3818.466, 9.463817
3820.395, 12.63200
3822.323, 8.480951
3824.252, 0.5411419
3826.180, 5.415109
3828.109, 11.29501
3830.037, 7.480729
3831.966, -8.099780
3833.894, 2.785838
3835.823, 19.77448
3837.751, 16.65160
3839.679, 6.834785
3841.608, 22.61386
3843.536, 16.82756
3845.465, 9.940179
3847.393, -3.067617
3849.322, 9.039332
3851.250, 16.71684
3853.179, 5.912179
3855.107, -1.935583
3857.036, 9.347486
3858.964, 1.646998
3860.893, 10.03874
3862.821, 5.221425
3864.750, 0.5625982
3866.678, 12.51468
3868.606, 17.11139
3870.535, 7.360771
3872.463, 4.294919
3874.392, 9.183722
3876.320, 10.61547
3878.249, 13.46456
3880.177, 12.87216
3882.106, 7.349453
3884.034, 4.175409
3885.963, 4.580722
3887.891, 3.063109
3889.820, -0.9982021
3891.748, 8.115762
3893.677, 20.92042
3895.605, 13.51727
3897.533, 13.42028
3899.462, 1.743231
3901.390, 6.457368
3903.319, 17.37191
3905.247, 10.05212
3907.176, 1.783950
3909.104, 7.035104
3911.033, 13.78864
3912.961, -0.3405700
3914.890, -1.416130
3916.818, 4.912783
3918.747, 13.11340
3920.675, 6.989177
3922.604, -4.774226
3924.532, 3.718556
3926.460, 9.303551
3928.389, 17.52655
3930.317, -8.124995
3932.246, 0.7057644
3934.174, -2.809308
3936.103, 7.863434
3938.031, 14.13567
3939.960, 5.004736
3941.888, 1.884751
3943.817, 4.644277
3945.745, -2.234665
3947.674, 5.187398
3949.602, 4.232509
3951.531, 4.324430
3953.459, 6.518946
3955.387, 8.126139
3957.316, 6.083201
3959.244, 5.753829
3961.173, 5.315802
3963.101, -5.731599
3965.030, 8.108370
3966.958, 26.53194
3968.887, 4.771514
3970.815, -2.844137
3972.744, 8.713109
3974.672, 5.350877
3976.601, -0.7637951
3978.529, 3.979020
3980.458, 3.364221
3982.386, -9.816198
3984.314, -4.217747
3986.243, -4.187987
3988.171, 16.56027
3990.100, 18.39252
3992.028, 9.669203
3993.957, 0.1133617
3995.885, -0.1411902
3997.814, 0.6897011
3999.742, 8.725582
4001.671, 18.81017
4003.599, 3.363959
4005.528, 9.124888
4007.456, 7.822760
4009.385, 17.43531
4011.313, 5.302121
4013.241, 14.33041
4015.170, 19.11798
4017.098, 2.299642
4019.027, -1.459676
4020.955, 6.915281
4022.884, 10.10339
4024.812, 10.63155
4026.741, -4.999605
4028.669, -5.538888
4030.598, -8.752030
4032.526, -7.234992
4034.455, -6.072697
4036.383, -5.191422
4038.312, 2.936951
4040.240, 4.074751
4042.168, 8.509148
4044.097, 1.475056
4046.025, -3.681334
4047.954, 19.26345
4049.882, 3.585165
4051.811, 4.250154
4053.739, 6.403307
4055.668, 5.995697
4057.596, 2.193253
4059.525, 8.801384
4061.453, 5.456247
4063.382, 0.8854127
4065.310, -0.3556262
4067.239, 5.107131
4069.167, 5.783970
4071.095, 1.685046
4073.024, 9.126175
4074.952, 9.584365
4076.881, 4.616788
4078.809, 3.827605
4080.738, 12.92493
4082.666, 1.196699
4084.595, 1.721345
4086.523, 13.97844
4088.452, 3.875328
4090.380, -2.444764
4092.309, -0.3572721
4094.237, 1.354269
4096.166, 6.050344
4098.094, 9.031133
4100.022, 3.876784
4101.951, 5.790863
4103.879, 1.264834
4105.808, 13.41519
4107.736, -0.7949658
4109.665, 14.78095
4111.593, 21.59057
4113.521, 10.01405
4115.450, 5.760893
4117.379, -0.9265833
4119.307, 4.825695
4121.235, 9.270717
4123.164, 3.351043
4125.093, -5.290307
4127.021, -4.537241
4128.949, 6.217221
4130.878, -0.5656081
4132.807, -5.660461
4134.735, -0.2547283
4136.663, -1.407631
4138.592, 2.870756
4140.521, 4.860981
4142.449, 15.21965
4144.377, 7.134050
4146.306, 10.73452
4148.234, 16.00358
4150.163, 9.728553
4152.091, -0.2234693
4154.020, -4.559444
4155.948, 6.134570
4157.876, 14.38560
4159.805, 6.166836
4161.733, 0.9421623
4163.662, 3.606003
4165.590, 15.32007
4167.519, 14.77500
4169.447, 11.14649
4171.376, -5.095616
4173.304, 10.78614
4175.232, 16.30381
4177.161, -1.524406
4179.090, 8.207823
4181.018, 1.385898
4182.946, 20.95800
4184.875, 4.467845
4186.804, 8.036228
4188.732, 11.12938
4190.660, 7.325724
4192.589, -7.942029
4194.518, -8.288078
4196.446, 10.00663
4198.374, 10.04403
4200.303, 16.69526
4202.231, 6.682639
4204.160, -0.3490430
4206.088, -10.88908
4208.017, 5.920197
4209.945, 9.516202
4211.874, 21.43727
4213.802, -0.8776779
4215.730, 8.571423
4217.659, 3.161207
4219.587, 12.47642
4221.516, 9.491936
4223.444, 3.610006
4225.373, 6.248955
4227.301, 4.494044
4229.229, 1.873681
4231.158, 7.709538
4233.087, 13.20069
4235.015, 4.147299
4236.943, 4.635738
4238.872, 11.02879
4240.801, -1.297453
4242.729, -2.846706
4244.657, 5.292559
4246.586, -5.654269
4248.515, 1.800695
4250.443, 2.019481
4252.371, 1.374449
4254.300, 25.01073
4256.229, 17.01441
4258.157, 14.97621
4260.085, -1.957546
4262.014, 12.47801
4263.942, 9.727234
4265.871, 5.101213
4267.799, 23.35025
4269.728, 10.81430
4271.656, -12.09188
4273.584, 3.241602
4275.513, 8.527121
4277.441, 3.149446
4279.370, -12.57386
4281.298, 22.86514
4283.227, 1.245462
4285.155, 6.659406
4287.084, 9.515247
4289.012, 4.362011
4290.940, 4.277188
4292.869, -4.044575
4294.798, 3.050754
4296.726, 10.27975
4298.654, 5.172937
4300.583, -5.498290
4302.512, -3.328065
4304.440, 1.160901
4306.368, -11.28851
4308.297, -7.771817
4310.226, 11.42533
4312.154, 16.62737
4314.082, 16.34474
4316.011, 16.23803
4317.939, 17.31140
4319.868, 6.099415
4321.796, -0.9307001
4323.725, -4.068000
4325.653, -11.83701
4327.582, 1.166381
4329.510, 14.38062
4331.438, 1.396514
4333.367, -2.938607
4335.295, -1.855316
4337.224, -6.562542
4339.152, -6.609617
4341.081, 9.576752
4343.009, 3.410964
4344.938, 15.91074
##END=



