##NAMES=Fluorite
##RRUFFID=R050115
##IDEAL CHEMISTRY=CaF_2_
##LOCALITY=Isthak Valley Iskardu, N.A. Gilgit, Pakistan
##OWNER=RRUFF
##SOURCE=Syed Shah
##DESCRIPTION=Colorless fragment
##STATUS=The identification of this mineral has been confirmed by X-ray diffraction and chemical analysis
##URL=rruff.info/R050115
##MEASURED CHEMISTRY=CaF_2_
80.85522, 142.3553
82.78369, 191.1035
84.71216, 268.4583
86.64063, 358.9303
88.56909, 502.9688
90.49756, 716.6081
92.42603, 982.1348
94.35449, 1293.221
96.28296, 1648.230
98.21143, 1987.185
100.1399, 2326.802
102.0684, 2571.336
103.9968, 2564.796
105.9253, 2551.449
107.8538, 2551.943
109.7822, 2564.851
111.7107, 2589.214
113.6392, 2620.533
115.5676, 2660.364
117.4961, 2715.713
119.4246, 2768.505
121.3530, 2801.424
123.2815, 2809.959
125.2100, 2821.125
127.1384, 2823.897
129.0669, 2839.146
130.9954, 2877.695
132.9238, 2924.862
134.8523, 2961.625
136.7808, 2983.961
138.7092, 3043.934
140.6377, 3160.707
142.5662, 3280.913
144.4946, 3387.484
146.4231, 3498.948
148.3516, 3637.299
150.2800, 3803.294
152.2085, 3940.933
154.1370, 4055.772
156.0654, 4136.837
157.9939, 4184.903
159.9224, 4191.687
161.8508, 4144.749
163.7793, 4049.069
165.7078, 3957.657
167.6362, 3863.841
169.5647, 3788.961
171.4932, 3749.322
173.4216, 3715.368
175.3501, 3667.854
177.2786, 3611.087
179.2070, 3559.735
181.1355, 3508.156
183.0640, 3478.688
184.9924, 3481.849
186.9209, 3496.041
188.8494, 3510.049
190.7778, 3526.225
192.7063, 3551.847
194.6348, 3592.927
196.5632, 3620.316
198.4917, 3625.150
200.4202, 3631.782
202.3486, 3654.547
204.2771, 3682.466
206.2056, 3702.058
208.1340, 3712.138
210.0625, 3730.808
211.9910, 3760.151
213.9194, 3791.502
215.8479, 3819.105
217.7764, 3850.542
219.7048, 3891.910
221.6333, 3942.075
223.5618, 3993.432
225.4902, 4043.226
227.4187, 4105.836
229.3472, 4193.639
231.2756, 4281.074
233.2041, 4352.220
235.1326, 4415.915
237.0610, 4493.043
238.9895, 4586.724
240.9180, 4658.398
242.8464, 4699.359
244.7749, 4734.321
246.7034, 4776.184
248.6318, 4813.725
250.5603, 4837.868
252.4888, 4848.602
254.4172, 4844.915
256.3457, 4820.590
258.2742, 4815.438
260.2026, 4857.813
262.1311, 4896.366
264.0596, 4911.193
265.9880, 4904.610
267.9165, 4873.527
269.8450, 4818.425
271.7734, 4774.302
273.7019, 4745.563
275.6304, 4723.239
277.5588, 4710.681
279.4873, 4696.898
281.4158, 4670.300
283.3442, 4635.901
285.2727, 4608.626
287.2012, 4586.680
289.1296, 4588.271
291.0581, 4628.064
292.9866, 4675.193
294.9150, 4723.478
296.8435, 4768.989
298.7720, 4802.021
300.7004, 4826.576
302.6289, 4868.480
304.5574, 4933.108
306.4858, 4990.796
308.4143, 5025.513
310.3428, 5060.076
312.2712, 5122.034
314.1997, 5179.792
316.1282, 5182.088
318.0566, 5134.633
319.9851, 5058.807
321.9136, 4950.113
323.8420, 4832.244
325.7705, 4694.113
327.6990, 4568.331
329.6274, 4473.744
331.5559, 4402.450
333.4843, 4341.100
335.4128, 4289.235
337.3413, 4248.645
339.2697, 4225.072
341.1982, 4199.396
343.1267, 4165.050
345.0551, 4130.359
346.9836, 4099.962
348.9121, 4072.304
350.8405, 4042.553
352.7690, 4011.646
354.6975, 3991.154
356.6259, 3986.174
358.5544, 3983.211
360.4829, 3987.334
362.4113, 3983.364
364.3398, 3957.713
366.2683, 3922.054
368.1967, 3891.390
370.1252, 3865.936
372.0537, 3849.907
373.9821, 3848.215
375.9106, 3845.830
377.8391, 3841.063
379.7675, 3833.443
381.6960, 3827.303
383.6245, 3815.476
385.5529, 3781.280
387.4814, 3732.247
389.4099, 3705.197
391.3383, 3713.619
393.2668, 3709.800
395.1953, 3681.960
397.1237, 3650.665
399.0522, 3620.437
400.9807, 3592.648
402.9091, 3569.919
404.8376, 3549.844
406.7661, 3525.185
408.6945, 3493.499
410.6230, 3468.484
412.5515, 3459.583
414.4799, 3444.628
416.4084, 3417.003
418.3369, 3384.533
420.2654, 3347.839
422.1938, 3312.608
424.1223, 3289.280
426.0508, 3277.816
427.9792, 3259.217
429.9077, 3230.168
431.8362, 3198.173
433.7646, 3153.593
435.6931, 3120.102
437.6216, 3120.144
439.5500, 3123.047
441.4785, 3097.172
443.4070, 3054.274
445.3354, 3030.191
447.2639, 3029.986
449.1924, 3028.531
451.1208, 3035.650
453.0493, 3025.848
454.9778, 2977.413
456.9062, 2932.325
458.8347, 2918.252
460.7632, 2917.068
462.6916, 2909.748
464.6201, 2897.122
466.5486, 2887.383
468.4770, 2887.143
470.4055, 2868.925
472.3340, 2816.146
474.2624, 2778.279
476.1909, 2778.819
478.1194, 2782.437
480.0478, 2768.510
481.9763, 2744.569
483.9048, 2716.702
485.8332, 2685.513
487.7617, 2659.065
489.6902, 2637.965
491.6186, 2623.566
493.5471, 2621.925
495.4756, 2612.071
497.4040, 2580.418
499.3325, 2550.419
501.2610, 2537.740
503.1894, 2532.242
505.1179, 2524.750
507.0464, 2514.740
508.9748, 2496.751
510.9033, 2467.095
512.8318, 2446.768
514.7603, 2437.196
516.6887, 2433.428
518.6172, 2439.779
520.5457, 2443.221
522.4741, 2438.889
524.4026, 2426.026
526.3311, 2398.962
528.2595, 2365.837
530.1880, 2348.516
532.1165, 2348.118
534.0449, 2340.835
535.9734, 2324.560
537.9019, 2312.378
539.8303, 2307.780
541.7588, 2305.138
543.6873, 2302.907
545.6157, 2300.795
547.5442, 2296.504
549.4727, 2293.965
551.4011, 2303.005
553.3296, 2319.004
555.2581, 2316.986
557.1865, 2297.905
559.1150, 2280.508
561.0435, 2263.960
562.9719, 2256.612
564.9004, 2268.697
566.8289, 2277.373
568.7573, 2271.302
570.6858, 2261.592
572.6143, 2253.370
574.5427, 2247.128
576.4711, 2248.651
578.3996, 2255.538
580.3281, 2250.167
582.2565, 2232.284
584.1850, 2218.732
586.1135, 2211.218
588.0419, 2210.076
589.9704, 2220.435
591.8989, 2228.393
593.8273, 2228.470
595.7558, 2226.834
597.6843, 2223.404
599.6127, 2219.372
601.5412, 2225.801
603.4697, 2240.842
605.3981, 2243.905
607.3266, 2235.498
609.2551, 2237.482
611.1835, 2255.230
613.1120, 2268.070
615.0405, 2268.941
616.9689, 2268.531
618.8974, 2268.367
620.8259, 2271.191
622.7543, 2277.265
624.6828, 2285.338
626.6113, 2294.938
628.5397, 2307.085
630.4682, 2326.022
632.3967, 2349.736
634.3251, 2366.938
636.2536, 2376.150
638.1821, 2385.041
640.1105, 2397.283
642.0390, 2404.336
643.9675, 2398.200
645.8959, 2394.326
647.8244, 2402.343
649.7529, 2410.247
651.6813, 2406.490
653.6098, 2402.425
655.5383, 2407.548
657.4667, 2416.827
659.3952, 2428.729
661.3237, 2443.780
663.2521, 2459.191
665.1806, 2474.461
667.1091, 2483.535
669.0375, 2480.673
670.9660, 2486.666
672.8945, 2515.332
674.8229, 2533.441
676.7514, 2527.878
678.6799, 2519.600
680.6083, 2524.244
682.5368, 2526.483
684.4653, 2505.568
686.3937, 2475.051
688.3222, 2457.476
690.2507, 2447.836
692.1791, 2430.901
694.1076, 2406.848
696.0361, 2382.289
697.9645, 2355.639
699.8930, 2334.755
701.8215, 2330.557
703.7499, 2314.347
705.6784, 2273.187
707.6069, 2238.078
709.5353, 2222.878
711.4638, 2208.121
713.3923, 2179.839
715.3207, 2149.001
717.2492, 2130.104
719.1777, 2114.575
721.1061, 2087.158
723.0346, 2055.802
724.9631, 2041.587
726.8915, 2040.868
728.8200, 2026.209
730.7485, 1994.910
732.6769, 1970.515
734.6054, 1957.830
736.5339, 1941.728
738.4623, 1913.546
740.3908, 1898.727
742.3193, 1915.199
744.2477, 1920.909
746.1762, 1892.686
748.1047, 1863.307
750.0331, 1848.578
751.9616, 1839.831
753.8901, 1838.306
755.8185, 1835.518
757.7470, 1817.411
759.6755, 1796.322
761.6039, 1796.863
763.5324, 1810.392
765.4609, 1799.503
767.3893, 1764.990
769.3178, 1756.282
771.2463, 1780.003
773.1747, 1789.475
775.1032, 1781.653
777.0317, 1767.237
778.9601, 1745.196
780.8886, 1727.787
782.8171, 1718.068
784.7455, 1710.173
786.6740, 1704.848
788.6025, 1698.309
790.5309, 1686.050
792.4594, 1674.912
794.3879, 1674.645
796.3163, 1667.531
798.2448, 1633.102
800.1733, 1591.863
802.1017, 1568.494
804.0302, 1557.048
805.9587, 1548.231
807.8871, 1537.314
809.8156, 1514.408
811.7441, 1482.609
813.6725, 1451.005
815.6010, 1420.196
817.5295, 1400.225
819.4579, 1391.345
821.3864, 1375.663
823.3149, 1350.841
825.2433, 1329.546
827.1718, 1314.970
829.1003, 1295.320
831.0287, 1264.306
832.9572, 1238.889
834.8857, 1223.978
836.8141, 1213.614
838.7426, 1214.818
840.6711, 1208.095
842.5995, 1173.918
844.5280, 1142.156
846.4565, 1138.000
848.3849, 1139.912
850.3134, 1127.662
852.2419, 1110.844
854.1703, 1101.267
856.0988, 1093.020
858.0273, 1075.324
859.9557, 1053.344
861.8842, 1043.562
863.8127, 1043.438
865.7411, 1037.344
867.6696, 1025.741
869.5981, 1015.159
871.5266, 1005.811
873.4550, 998.0536
875.3835, 991.0908
877.3120, 983.0443
879.2404, 975.7414
881.1689, 964.2701
883.0974, 941.0360
885.0258, 931.8074
886.9543, 952.9268
888.8828, 962.3494
890.8112, 946.1968
892.7397, 931.6976
894.6682, 923.4969
896.5966, 920.8340
898.5251, 928.6684
900.4536, 933.6650
902.3820, 924.1353
904.3105, 915.6761
906.2390, 921.2855
908.1674, 927.0356
910.0959, 926.0877
912.0244, 925.8801
913.9528, 922.5388
915.8813, 919.6125
917.8098, 928.7501
919.7382, 939.8914
921.6667, 940.4513
923.5952, 937.8305
925.5236, 938.9764
927.4521, 944.0115
929.3806, 955.6792
931.3090, 968.0844
933.2375, 969.0895
935.1660, 964.4519
937.0944, 966.7598
939.0229, 973.5872
940.9514, 978.6257
942.8798, 983.3256
944.8083, 994.9184
946.7368, 1012.513
948.6652, 1024.745
950.5937, 1031.625
952.5222, 1038.712
954.4506, 1045.389
956.3791, 1050.299
958.3076, 1054.606
960.2360, 1061.677
962.1645, 1069.821
964.0930, 1082.311
966.0214, 1102.238
967.9499, 1110.482
969.8784, 1101.843
971.8068, 1109.207
973.7353, 1140.195
975.6638, 1161.845
977.5922, 1167.450
979.5207, 1170.163
981.4492, 1173.399
983.3776, 1182.451
985.3061, 1195.168
987.2346, 1206.470
989.1630, 1220.831
991.0915, 1232.259
993.0200, 1233.195
994.9484, 1239.811
996.8769, 1258.429
998.8054, 1281.203
1000.734, 1307.917
1002.662, 1329.388
1004.591, 1342.196
1006.519, 1351.508
1008.448, 1357.203
1010.376, 1369.581
1012.305, 1389.728
1014.233, 1415.723
1016.162, 1451.899
1018.090, 1489.050
1020.018, 1524.802
1021.947, 1557.432
1023.875, 1582.202
1025.804, 1606.328
1027.732, 1636.254
1029.661, 1665.796
1031.589, 1688.099
1033.518, 1713.412
1035.446, 1748.414
1037.375, 1785.080
1039.303, 1821.296
1041.232, 1855.573
1043.160, 1885.026
1045.089, 1918.013
1047.017, 1959.571
1048.946, 1998.773
1050.874, 2033.059
1052.802, 2064.819
1054.731, 2089.736
1056.659, 2114.991
1058.588, 2150.263
1060.516, 2183.908
1062.445, 2207.120
1064.373, 2227.658
1066.302, 2244.892
1068.230, 2270.258
1070.159, 2316.016
1072.087, 2356.942
1074.016, 2376.841
1075.944, 2402.740
1077.872, 2447.820
1079.801, 2491.753
1081.729, 2522.010
1083.658, 2562.862
1085.586, 2629.627
1087.515, 2686.194
1089.443, 2716.973
1091.372, 2756.397
1093.300, 2816.878
1095.229, 2873.512
1097.157, 2908.840
1099.086, 2966.663
1101.014, 3071.734
1102.943, 3169.490
1104.871, 3242.039
1106.799, 3318.120
1108.728, 3404.382
1110.656, 3498.496
1112.585, 3591.703
1114.513, 3698.656
1116.442, 3827.639
1118.370, 3958.642
1120.299, 4094.846
1122.227, 4234.662
1124.156, 4364.854
1126.084, 4525.259
1128.013, 4727.521
1129.941, 4913.672
1131.870, 5075.788
1133.798, 5276.803
1135.726, 5521.107
1137.655, 5766.737
1139.583, 6010.731
1141.512, 6262.293
1143.440, 6524.249
1145.369, 6825.594
1147.297, 7161.888
1149.226, 7488.242
1151.154, 7820.831
1153.083, 8254.145
1155.011, 8778.667
1156.940, 9389.712
1158.868, 10085.69
1160.797, 10838.53
1162.725, 11644.82
1164.653, 12506.63
1166.582, 13412.08
1168.510, 14355.99
1170.439, 15287.29
1172.367, 16162.76
1174.296, 16915.72
1176.224, 17428.65
1178.153, 17753.43
1180.081, 17901.23
1182.010, 17961.45
1183.938, 18013.57
1185.867, 18091.71
1187.795, 18212.79
1189.724, 18360.53
1191.652, 18509.69
1193.580, 18748.54
1195.509, 19073.94
1197.437, 19581.12
1199.366, 20305.11
1201.294, 21291.99
1203.223, 22614.90
1205.151, 24053.29
1207.080, 25589.82
1209.008, 27038.13
1210.937, 28364.72
1212.865, 29354.06
1214.794, 29948.05
1216.722, 30311.05
1218.651, 30452.99
1220.579, 30473.79
1222.507, 30404.70
1224.436, 30380.45
1226.364, 30404.34
1228.293, 30578.20
1230.221, 30974.22
1232.150, 31963.73
1234.078, 33471.28
1236.007, 35372.38
1237.935, 37491.47
1239.864, 39411.31
1241.792, 40867.26
1243.721, 41358.42
1245.649, 41086.87
1247.578, 40130.33
1249.506, 38892.82
1251.434, 37668.61
1253.363, 36680.62
1255.291, 36057.22
1257.220, 35761.43
1259.148, 35875.45
1261.077, 36153.53
1263.005, 36603.02
1264.934, 36991.31
1266.862, 37206.33
1268.791, 37429.24
1270.719, 37721.09
1272.648, 38063.50
1274.576, 38512.14
1276.505, 38503.82
1278.433, 37965.90
1280.361, 36812.92
1282.290, 35067.13
1284.218, 32937.22
1286.147, 30536.92
1288.075, 28286.61
1290.004, 26235.07
1291.932, 24516.06
1293.861, 23083.83
1295.789, 21882.35
1297.718, 20863.33
1299.646, 19979.28
1301.575, 19200.82
1303.503, 18503.67
1305.432, 17918.94
1307.360, 17433.81
1309.288, 17118.67
1311.217, 17001.04
1313.145, 17099.65
1315.074, 17460.34
1317.002, 17978.73
1318.931, 18660.14
1320.859, 19231.30
1322.788, 19673.37
1324.716, 19856.84
1326.645, 19753.87
1328.573, 19281.85
1330.502, 18498.43
1332.430, 17494.27
1334.359, 16359.28
1336.287, 15222.08
1338.215, 14147.93
1340.144, 13168.53
1342.072, 12288.20
1344.001, 11539.93
1345.929, 10887.97
1347.858, 10314.26
1349.786, 9846.557
1351.715, 9489.311
1353.643, 9177.039
1355.572, 8894.896
1357.500, 8638.729
1359.429, 8424.493
1361.357, 8278.603
1363.286, 8175.688
1365.214, 8068.142
1367.142, 7960.240
1369.071, 7845.657
1370.999, 7740.748
1372.928, 7654.363
1374.856, 7586.479
1376.785, 7554.804
1378.713, 7524.824
1380.642, 7474.929
1382.570, 7439.200
1384.499, 7437.742
1386.427, 7437.070
1388.356, 7424.508
1390.284, 7415.075
1392.213, 7410.336
1394.141, 7360.902
1396.069, 7273.463
1397.998, 7209.021
1399.926, 7154.071
1401.855, 7066.718
1403.783, 6978.949
1405.712, 6948.577
1407.640, 6931.784
1409.569, 6891.416
1411.497, 6858.712
1413.426, 6839.393
1415.354, 6818.549
1417.283, 6798.693
1419.211, 6785.945
1421.140, 6777.465
1423.068, 6786.894
1424.996, 6806.055
1426.925, 6775.782
1428.853, 6724.508
1430.782, 6726.532
1432.710, 6747.954
1434.639, 6741.020
1436.567, 6739.901
1438.496, 6767.698
1440.424, 6795.104
1442.353, 6807.985
1444.281, 6837.374
1446.210, 6897.034
1448.138, 6959.133
1450.067, 7017.798
1451.995, 7084.546
1453.923, 7159.156
1455.852, 7262.992
1457.780, 7389.073
1459.709, 7505.319
1461.637, 7621.839
1463.566, 7770.031
1465.494, 7930.696
1467.423, 8073.230
1469.351, 8234.235
1471.280, 8435.681
1473.208, 8633.727
1475.137, 8823.380
1477.065, 9019.708
1478.994, 9227.979
1480.922, 9463.310
1482.850, 9710.234
1484.779, 9928.957
1486.707, 10135.73
1488.636, 10362.21
1490.564, 10595.88
1492.493, 10815.04
1494.421, 11017.54
1496.350, 11212.03
1498.278, 11419.39
1500.207, 11626.89
1502.135, 11798.36
1504.064, 11952.44
1505.992, 12111.53
1507.921, 12264.03
1509.849, 12369.06
1511.777, 12455.29
1513.706, 12588.56
1515.634, 12695.22
1517.563, 12724.89
1519.491, 12790.93
1521.420, 12902.40
1523.348, 12980.70
1525.277, 13059.56
1527.205, 13166.33
1529.134, 13257.94
1531.062, 13313.91
1532.991, 13368.06
1534.919, 13445.55
1536.848, 13547.84
1538.776, 13676.66
1540.704, 13811.80
1542.633, 13929.15
1544.561, 14055.89
1546.490, 14208.30
1548.418, 14370.93
1550.347, 14532.93
1552.275, 14700.33
1554.204, 14871.77
1556.132, 15047.02
1558.061, 15207.85
1559.989, 15335.35
1561.918, 15491.69
1563.846, 15696.66
1565.775, 15868.25
1567.703, 15987.22
1569.631, 16111.85
1571.560, 16228.61
1573.488, 16298.24
1575.417, 16329.85
1577.345, 16305.49
1579.274, 16277.89
1581.202, 16282.91
1583.131, 16238.08
1585.059, 16138.42
1586.988, 16040.46
1588.916, 15915.87
1590.845, 15770.61
1592.773, 15612.29
1594.702, 15403.59
1596.630, 15177.42
1598.558, 14957.79
1600.487, 14721.50
1602.415, 14460.09
1604.344, 14172.01
1606.272, 13864.11
1608.201, 13541.85
1610.129, 13204.59
1612.058, 12856.13
1613.986, 12520.71
1615.915, 12225.08
1617.843, 11927.62
1619.772, 11610.94
1621.700, 11318.45
1623.629, 11035.40
1625.557, 10775.40
1627.485, 10561.11
1629.414, 10334.33
1631.342, 10123.47
1633.271, 9953.128
1635.199, 9811.078
1637.128, 9707.792
1639.056, 9624.372
1640.985, 9564.330
1642.913, 9513.926
1644.842, 9486.476
1646.770, 9504.373
1648.699, 9520.683
1650.627, 9532.848
1652.556, 9548.896
1654.484, 9551.471
1656.412, 9527.255
1658.341, 9484.489
1660.269, 9446.113
1662.198, 9404.127
1664.126, 9349.072
1666.055, 9308.263
1667.983, 9301.514
1669.912, 9354.336
1671.840, 9448.240
1673.769, 9574.044
1675.697, 9760.794
1677.626, 9984.150
1679.554, 10245.47
1681.483, 10587.49
1683.411, 10977.73
1685.339, 11391.60
1687.268, 11811.79
1689.196, 12212.61
1691.125, 12524.18
1693.053, 12729.12
1694.982, 12800.64
1696.910, 12740.00
1698.839, 12538.78
1700.767, 12195.39
1702.696, 11744.98
1704.624, 11260.83
1706.553, 10760.93
1708.481, 10305.70
1710.410, 9906.503
1712.338, 9550.038
1714.266, 9236.400
1716.195, 8979.993
1718.123, 8818.305
1720.052, 8744.255
1721.980, 8696.367
1723.909, 8664.563
1725.837, 8631.626
1727.766, 8585.756
1729.694, 8517.861
1731.623, 8405.451
1733.551, 8229.574
1735.480, 8054.366
1737.408, 7917.872
1739.337, 7814.626
1741.265, 7766.209
1743.193, 7791.882
1745.122, 7849.125
1747.050, 7928.533
1748.979, 8036.284
1750.907, 8116.165
1752.836, 8132.160
1754.764, 8108.505
1756.693, 8020.147
1758.621, 7855.090
1760.550, 7605.731
1762.478, 7319.802
1764.407, 7045.695
1766.335, 6750.279
1768.264, 6430.478
1770.192, 6149.047
1772.120, 5893.091
1774.049, 5630.797
1775.977, 5383.642
1777.906, 5185.199
1779.834, 5020.864
1781.763, 4856.398
1783.691, 4701.545
1785.620, 4560.360
1787.548, 4422.773
1789.477, 4291.208
1791.405, 4174.417
1793.334, 4065.191
1795.262, 3954.250
1797.191, 3841.869
1799.119, 3734.801
1801.047, 3628.483
1802.976, 3516.554
1804.904, 3403.808
1806.833, 3302.124
1808.761, 3217.759
1810.690, 3133.171
1812.618, 3050.774
1814.547, 2969.776
1816.475, 2889.627
1818.404, 2826.755
1820.332, 2767.733
1822.261, 2709.703
1824.189, 2653.512
1826.118, 2588.898
1828.046, 2528.431
1829.974, 2466.447
1831.903, 2404.836
1833.831, 2370.768
1835.760, 2334.589
1837.688, 2292.118
1839.617, 2245.125
1841.545, 2199.037
1843.474, 2176.033
1845.402, 2154.323
1847.331, 2120.718
1849.259, 2078.793
1851.188, 2042.300
1853.116, 2013.185
1855.045, 1986.636
1856.973, 1953.578
1858.901, 1917.471
1860.830, 1889.160
1862.758, 1851.317
1864.687, 1806.955
1866.615, 1773.148
1868.544, 1745.124
1870.472, 1721.328
1872.401, 1704.406
1874.329, 1688.082
1876.258, 1665.777
1878.186, 1647.649
1880.115, 1637.196
1882.043, 1618.501
1883.972, 1594.758
1885.900, 1578.233
1887.828, 1568.266
1889.757, 1558.650
1891.685, 1545.279
1893.614, 1533.336
1895.542, 1519.166
1897.471, 1497.049
1899.399, 1471.170
1901.328, 1446.780
1903.256, 1425.247
1905.185, 1403.941
1907.113, 1380.693
1909.042, 1356.954
1910.970, 1328.684
1912.899, 1309.648
1914.827, 1293.730
1916.755, 1268.846
1918.684, 1249.549
1920.612, 1241.382
1922.541, 1230.947
1924.469, 1208.245
1926.398, 1185.795
1928.326, 1170.860
1930.255, 1156.633
1932.183, 1141.973
1934.112, 1135.124
1936.040, 1134.559
1937.969, 1133.728
1939.897, 1136.651
1941.826, 1146.862
1943.754, 1163.308
1945.682, 1202.276
1947.611, 1256.936
1949.539, 1291.348
1951.468, 1312.937
1953.396, 1306.396
1955.325, 1278.192
1957.253, 1232.197
1959.182, 1165.654
1961.110, 1105.674
1963.039, 1059.985
1964.967, 1014.595
1966.896, 971.1123
1968.824, 937.4434
1970.753, 910.8383
1972.681, 895.9191
1974.609, 886.2554
1976.538, 871.1400
1978.466, 857.5601
1980.395, 846.4716
1982.323, 833.0424
1984.252, 818.0089
1986.180, 802.1743
1988.109, 793.3135
1990.037, 796.1921
1991.966, 793.2231
1993.894, 788.0677
1995.823, 787.5226
1997.751, 796.2511
1999.680, 820.2753
2001.608, 871.1301
2003.536, 941.1138
2005.465, 989.9452
2007.393, 982.6077
2009.322, 926.3361
2011.250, 857.0062
2013.179, 790.0019
2015.107, 741.8591
2017.036, 708.4479
2018.964, 687.1315
2020.893, 682.6354
2022.821, 691.5756
2024.750, 710.1749
2026.678, 754.6628
2028.607, 833.8760
2030.535, 895.8387
2032.464, 907.1859
2034.392, 846.8814
2036.320, 764.3880
2038.249, 696.1989
2040.177, 637.8087
2042.106, 596.3197
2044.034, 575.4956
2045.963, 555.6987
2047.891, 533.5587
2049.820, 519.2767
2051.748, 514.3568
2053.677, 510.4380
2055.605, 500.8745
2057.533, 489.5478
2059.462, 481.1802
2061.390, 478.1078
2063.319, 469.9454
2065.247, 461.6721
2067.176, 461.1708
2069.104, 458.5117
2071.033, 450.3640
2072.961, 445.1555
2074.890, 436.6071
2076.818, 425.8025
2078.747, 424.2353
2080.675, 424.6049
2082.604, 417.1100
2084.532, 414.2514
2086.460, 420.6825
2088.389, 421.3677
2090.317, 418.3026
2092.246, 416.9050
2094.174, 414.3625
2096.103, 407.7650
2098.031, 406.6676
2099.960, 409.4052
2101.888, 407.6176
2103.817, 405.7986
2105.745, 413.6768
2107.674, 416.0127
2109.602, 411.2552
2111.531, 413.4787
2113.459, 415.7216
2115.387, 420.5056
2117.316, 423.9220
2119.244, 422.1718
2121.173, 422.2552
2123.101, 419.9486
2125.030, 422.2082
2126.958, 428.9113
2128.887, 431.1832
2130.815, 430.8750
2132.744, 430.4398
2134.672, 433.2510
2136.601, 441.2011
2138.529, 445.6226
2140.458, 442.5107
2142.386, 445.2322
2144.314, 455.2654
2146.243, 460.6796
2148.171, 463.2010
2150.100, 465.6184
2152.028, 469.4993
2153.957, 473.4412
2155.885, 476.3089
2157.814, 481.3020
2159.742, 484.8357
2161.671, 486.5301
2163.599, 488.5979
2165.528, 485.5579
2167.456, 475.9539
2169.385, 458.9772
2171.313, 449.2177
2173.241, 440.4738
2175.170, 426.1344
2177.098, 416.4903
2179.027, 411.1280
2180.955, 399.6588
2182.884, 388.5318
2184.812, 383.0743
2186.741, 377.1581
2188.669, 368.7389
2190.598, 365.5653
2192.526, 362.9749
2194.455, 356.8891
2196.383, 360.3683
2198.312, 364.4579
2200.240, 358.8730
2202.168, 355.8653
2204.097, 351.5007
2206.025, 343.8246
2207.954, 343.0704
2209.882, 348.2987
2211.811, 349.5179
2213.739, 345.7331
2215.668, 344.6506
2217.596, 343.8818
2219.525, 340.6593
2221.453, 338.2036
2223.382, 339.8086
2225.310, 348.4304
2227.239, 348.6829
2229.167, 344.0431
2231.095, 344.4531
2233.024, 340.1101
2234.952, 326.1951
2236.881, 319.8804
2238.809, 323.0396
2240.738, 328.0573
2242.666, 326.8620
2244.595, 322.3075
2246.523, 323.2939
2248.452, 323.1041
2250.380, 323.4593
2252.309, 329.2660
2254.237, 334.3906
2256.166, 327.8593
2258.094, 320.5592
2260.022, 324.1739
2261.951, 327.7757
2263.879, 323.6293
2265.808, 322.4937
2267.736, 321.6748
2269.665, 318.5382
2271.593, 321.0419
2273.522, 324.8271
2275.450, 327.1570
2277.379, 322.2976
2279.307, 314.0649
2281.236, 311.5699
2283.164, 308.9883
2285.093, 306.4061
2287.021, 304.3051
2288.949, 300.3611
2290.878, 297.1838
2292.806, 296.3611
2294.735, 297.3916
2296.663, 295.4127
2298.592, 288.7808
2300.520, 281.0771
2302.449, 284.9083
2304.377, 289.5385
2306.306, 286.2041
2308.234, 283.0613
2310.163, 281.8212
2312.091, 283.3415
2314.020, 283.8560
2315.948, 280.1553
2317.876, 281.6478
2319.805, 285.4585
2321.733, 288.7661
2323.662, 294.3965
2325.590, 300.4799
2327.519, 302.5387
2329.447, 298.9913
2331.376, 292.2526
2333.304, 300.2704
2335.233, 306.5906
2337.161, 311.1643
2339.090, 312.2705
2341.018, 308.0475
2342.947, 309.7307
2344.875, 315.8250
2346.803, 323.1598
2348.732, 323.0873
2350.660, 319.4645
2352.589, 316.8880
2354.517, 321.9809
2356.446, 323.1448
2358.374, 312.6232
2360.303, 304.0732
2362.231, 298.8745
2364.160, 300.8102
2366.088, 308.4943
2368.017, 314.2280
2369.945, 306.6194
2371.874, 304.8215
2373.802, 311.7777
2375.730, 311.5422
2377.659, 310.6089
2379.587, 307.1653
2381.516, 311.3437
2383.444, 318.1034
2385.373, 319.9591
2387.301, 326.1602
2389.230, 335.5023
2391.158, 333.9528
2393.087, 330.9295
2395.015, 332.0143
2396.944, 342.8224
2398.872, 352.4128
2400.801, 352.4538
2402.729, 361.5075
2404.657, 372.4886
2406.586, 372.3467
2408.514, 381.6660
2410.443, 399.1709
2412.371, 413.7916
2414.300, 433.9292
2416.228, 456.8969
2418.157, 451.2778
2420.085, 445.3277
2422.014, 458.4524
2423.942, 466.5804
2425.871, 467.7984
2427.799, 469.2556
2429.728, 474.5396
2431.656, 477.8826
2433.584, 478.4749
2435.513, 484.5139
2437.441, 495.2752
2439.370, 510.6462
2441.298, 526.7980
2443.227, 545.4641
2445.155, 561.2883
2447.084, 571.3400
2449.012, 582.5244
2450.941, 592.7859
2452.869, 603.3258
2454.798, 623.3580
2456.726, 642.5523
2458.655, 659.0823
2460.583, 676.5479
2462.511, 696.2452
2464.440, 715.5544
2466.368, 729.2960
2468.297, 735.5451
2470.225, 740.8679
2472.154, 750.4304
2474.082, 753.7337
2476.011, 755.0060
2477.939, 746.7106
2479.868, 736.4388
2481.796, 734.7173
2483.725, 731.3466
2485.653, 727.9894
2487.582, 730.6727
2489.510, 739.2601
2491.438, 742.8021
2493.367, 730.6957
2495.295, 724.9474
2497.224, 726.5183
2499.152, 718.6896
2501.081, 716.7450
2503.009, 719.1949
2504.938, 708.4263
2506.866, 706.2390
2508.795, 714.5549
2510.723, 722.9937
2512.652, 724.4642
2514.580, 719.0538
2516.509, 720.9178
2518.437, 731.0676
2520.365, 743.6735
2522.294, 753.3510
2524.222, 755.6439
2526.151, 745.7047
2528.079, 740.2076
2530.008, 745.8745
2531.936, 771.5109
2533.865, 783.7790
2535.793, 784.2244
2537.722, 782.7928
2539.650, 797.0643
2541.579, 816.6550
2543.507, 836.4645
2545.436, 851.2753
2547.364, 862.2232
2549.292, 882.7541
2551.221, 912.0708
2553.149, 940.8323
2555.078, 958.4015
2557.006, 982.4536
2558.935, 1011.627
2560.863, 1034.102
2562.792, 1053.724
2564.720, 1077.187
2566.649, 1106.747
2568.577, 1128.435
2570.506, 1142.028
2572.434, 1156.695
2574.363, 1180.139
2576.291, 1211.190
2578.219, 1232.364
2580.148, 1251.075
2582.076, 1269.940
2584.005, 1285.215
2585.933, 1297.370
2587.862, 1302.801
2589.790, 1304.186
2591.719, 1303.761
2593.647, 1301.463
2595.576, 1302.058
2597.504, 1299.978
2599.433, 1289.167
2601.361, 1286.801
2603.290, 1279.380
2605.218, 1263.275
2607.146, 1251.102
2609.075, 1232.084
2611.003, 1220.351
2612.932, 1209.959
2614.860, 1193.930
2616.789, 1178.315
2618.717, 1161.855
2620.646, 1162.578
2622.574, 1173.913
2624.503, 1144.517
2626.431, 1120.400
2628.360, 1110.465
2630.288, 1099.748
2632.217, 1081.338
2634.145, 1055.997
2636.073, 1052.581
2638.002, 1042.919
2639.930, 1019.042
2641.859, 994.2119
2643.787, 975.1484
2645.716, 958.8990
2647.644, 941.1839
2649.573, 923.7065
2651.501, 906.8651
2653.430, 890.6339
2655.358, 873.7271
2657.287, 859.8943
2659.215, 844.7495
2661.144, 827.3795
2663.072, 808.7860
2665.000, 792.7437
2666.929, 779.5590
2668.857, 766.0835
2670.786, 762.2280
2672.714, 751.7962
2674.643, 736.9246
2676.571, 720.7750
2678.500, 704.1439
2680.428, 696.2472
2682.357, 686.5114
2684.285, 670.8152
2686.214, 661.0350
2688.142, 656.0748
2690.071, 649.6447
2691.999, 639.9645
2693.927, 625.0798
2695.856, 619.4889
2697.784, 614.6046
2699.713, 611.3635
2701.641, 603.7327
2703.570, 592.7347
2705.498, 575.1796
2707.427, 574.4974
2709.355, 569.3986
2711.284, 552.3809
2713.212, 549.7932
2715.141, 543.2582
2717.069, 530.9915
2718.998, 518.8842
2720.926, 510.7446
2722.854, 501.6311
2724.783, 492.3145
2726.711, 485.5893
2728.640, 477.9865
2730.568, 470.9621
2732.497, 468.6579
2734.425, 467.3019
2736.354, 452.6861
2738.282, 440.2973
2740.211, 437.6906
2742.139, 431.9561
2744.068, 418.3611
2745.996, 408.4763
2747.925, 405.9458
2749.853, 402.1346
2751.781, 398.7818
2753.710, 393.4482
2755.638, 393.1551
2757.567, 393.4902
2759.495, 388.7169
2761.424, 385.6131
2763.352, 384.3275
2765.281, 381.8946
2767.209, 369.3700
2769.138, 362.9376
2771.066, 365.7829
2772.995, 360.6068
2774.923, 361.0966
2776.852, 363.1070
2778.780, 355.2846
2780.708, 352.8860
2782.637, 354.2731
2784.565, 356.8222
2786.494, 353.6266
2788.422, 348.4995
2790.351, 343.1495
2792.279, 340.8579
2794.208, 334.0172
2796.136, 331.7429
2798.065, 326.1046
2799.993, 325.8978
2801.922, 331.9875
2803.850, 328.2119
2805.779, 329.3117
2807.707, 330.0383
2809.635, 328.8562
2811.564, 323.0674
2813.492, 317.5822
2815.421, 311.6562
2817.349, 318.2710
2819.278, 324.9894
2821.206, 319.2094
2823.135, 315.9499
2825.063, 313.8351
2826.992, 308.8466
2828.920, 314.0253
2830.849, 310.8405
2832.777, 304.0643
2834.706, 300.8904
2836.634, 301.7499
2838.563, 307.6864
2840.491, 305.1859
2842.419, 307.4053
2844.348, 309.5736
2846.276, 304.1279
2848.205, 307.2567
2850.133, 310.4470
2852.062, 303.0597
2853.990, 293.1862
2855.919, 293.8434
2857.847, 298.8631
2859.776, 303.8480
2861.704, 306.5512
2863.633, 298.6355
2865.561, 282.1748
2867.490, 290.9789
2869.418, 300.4321
2871.346, 306.4630
2873.275, 295.4695
2875.203, 289.6979
2877.132, 293.4404
2879.060, 300.8363
2880.989, 291.3353
2882.917, 283.9547
2884.846, 286.0460
2886.774, 287.8219
2888.703, 286.9979
2890.631, 285.5145
2892.560, 283.0883
2894.488, 278.8376
2896.417, 272.9825
2898.345, 277.9774
2900.273, 277.5438
2902.202, 268.0965
2904.130, 261.7010
2906.059, 271.4463
2907.987, 272.6041
2909.916, 268.4781
2911.844, 263.9494
2913.773, 262.4476
2915.701, 260.9195
2917.630, 258.8702
2919.558, 263.6303
2921.487, 268.6560
2923.415, 266.7310
2925.344, 261.3004
2927.272, 257.4924
2929.200, 258.6232
2931.129, 259.3827
2933.057, 259.8306
2934.986, 256.6106
2936.914, 252.6958
2938.843, 252.9189
2940.771, 250.0283
2942.700, 252.7538
2944.628, 255.9129
2946.557, 258.8786
2948.485, 259.6023
2950.414, 257.0343
2952.342, 252.9800
2954.271, 257.2305
2956.199, 258.2075
2958.127, 253.2791
2960.056, 250.2469
2961.984, 253.3706
2963.913, 256.8475
2965.841, 254.6796
2967.770, 254.7464
2969.698, 254.1116
2971.627, 251.1087
2973.555, 250.7145
2975.484, 248.9325
2977.412, 247.8313
2979.341, 250.7045
2981.269, 251.2860
2983.198, 254.4593
2985.126, 259.9879
2987.054, 263.3571
2988.983, 258.5712
2990.911, 250.1483
2992.840, 246.6242
2994.768, 248.5837
2996.697, 251.8922
2998.625, 256.3826
3000.554, 250.4619
3002.482, 245.7127
3004.411, 246.4906
3006.339, 249.4142
3008.268, 241.3269
3010.196, 237.8544
3012.125, 242.4329
3014.053, 244.5725
3015.981, 243.6067
3017.910, 245.5590
3019.838, 246.5654
3021.767, 248.5050
3023.695, 251.4897
3025.624, 250.1851
3027.552, 244.3919
3029.481, 245.2755
3031.409, 248.0362
3033.338, 250.4144
3035.266, 254.0550
3037.195, 250.3162
3039.123, 245.6023
3041.052, 249.0035
3042.980, 256.3465
3044.908, 262.5315
3046.837, 266.9036
3048.765, 264.9792
3050.694, 268.7179
3052.622, 276.4161
3054.551, 281.3329
3056.479, 276.2309
3058.408, 273.5002
3060.336, 276.1007
3062.265, 288.8432
3064.193, 294.7246
3066.122, 299.9557
3068.050, 303.5366
3069.979, 299.4611
3071.907, 302.5181
3073.835, 309.0302
3075.764, 316.7940
3077.692, 321.3702
3079.621, 324.4195
3081.549, 326.4002
3083.478, 325.6928
3085.406, 323.9360
3087.335, 333.4280
3089.263, 345.8200
3091.192, 347.7511
3093.120, 354.4747
3095.049, 358.6102
3096.977, 361.6588
3098.906, 366.5524
3100.834, 372.9670
3102.762, 367.7912
3104.691, 356.8210
3106.619, 363.9134
3108.548, 366.7416
3110.476, 368.1154
3112.405, 371.2932
3114.333, 353.4866
3116.262, 359.0977
3118.190, 368.2289
3120.119, 364.4750
3122.047, 372.3678
3123.976, 379.6073
3125.904, 388.5602
3127.833, 401.0604
3129.761, 409.6430
3131.689, 410.6955
3133.618, 411.5757
3135.546, 425.0141
3137.475, 435.8859
3139.403, 448.1670
3141.332, 465.8787
3143.260, 492.0824
3145.189, 524.0397
3147.117, 545.7697
3149.046, 562.3762
3150.974, 595.3969
3152.903, 649.5705
3154.831, 689.9586
3156.760, 714.2260
3158.688, 775.1590
3160.616, 817.1510
3162.545, 845.4395
3164.473, 868.5193
3166.402, 886.1396
3168.330, 886.6938
3170.259, 866.8181
3172.187, 830.3255
3174.116, 797.0756
3176.044, 789.8333
3177.973, 793.7484
3179.901, 798.8788
3181.830, 801.6238
3183.758, 812.5817
3185.687, 828.9817
3187.615, 848.0522
3189.543, 869.4114
3191.472, 912.7794
3193.400, 948.3683
3195.329, 962.1545
3197.257, 997.3120
3199.186, 1055.879
3201.114, 1115.196
3203.043, 1163.230
3204.971, 1229.954
3206.900, 1304.779
3208.828, 1369.773
3210.757, 1410.908
3212.685, 1407.911
3214.614, 1421.748
3216.542, 1441.884
3218.470, 1456.732
3220.399, 1461.695
3222.327, 1452.437
3224.256, 1430.111
3226.184, 1398.413
3228.113, 1363.800
3230.041, 1331.993
3231.970, 1309.200
3233.898, 1288.429
3235.827, 1242.763
3237.755, 1193.475
3239.684, 1164.910
3241.612, 1158.980
3243.541, 1158.091
3245.469, 1201.906
3247.397, 1239.787
3249.326, 1257.587
3251.254, 1257.596
3253.183, 1321.919
3255.111, 1369.974
3257.040, 1413.455
3258.968, 1496.294
3260.897, 1537.845
3262.825, 1586.810
3264.754, 1633.438
3266.682, 1657.718
3268.611, 1680.167
3270.539, 1666.558
3272.468, 1663.019
3274.396, 1691.546
3276.324, 1679.340
3278.253, 1649.734
3280.181, 1618.558
3282.110, 1575.030
3284.038, 1481.361
3285.967, 1391.619
3287.895, 1296.663
3289.824, 1204.792
3291.752, 1135.633
3293.681, 1061.923
3295.609, 992.3351
3297.538, 939.1580
3299.466, 908.8091
3301.395, 870.4875
3303.323, 832.0860
3305.251, 805.0258
3307.180, 787.3757
3309.108, 751.3102
3311.037, 747.3365
3312.965, 753.7657
3314.894, 755.9887
3316.822, 747.3019
3318.751, 739.6838
3320.679, 760.7134
3322.608, 779.2305
3324.536, 762.8241
3326.465, 778.6430
3328.393, 778.8801
3330.322, 772.5765
3332.250, 767.4316
3334.178, 745.5574
3336.107, 748.8851
3338.035, 738.2443
3339.964, 727.6466
3341.892, 760.7593
3343.821, 746.6440
3345.749, 748.9994
3347.678, 762.4258
3349.606, 770.8668
3351.535, 777.4481
3353.463, 791.4540
3355.392, 800.6109
3357.320, 809.9273
3359.249, 834.5505
3361.177, 846.3260
3363.105, 860.4197
3365.034, 874.6626
3366.962, 881.6364
3368.891, 866.3972
3370.819, 896.5015
3372.748, 906.4407
3374.676, 889.4346
3376.605, 890.5422
3378.533, 908.6242
3380.462, 903.6923
3382.390, 888.3668
3384.319, 879.8091
3386.247, 875.1415
3388.176, 880.5341
3390.104, 885.6187
3392.032, 889.5195
3393.961, 900.3289
3395.889, 892.3168
3397.818, 880.0897
3399.746, 874.9034
3401.675, 878.7576
3403.603, 885.5956
3405.532, 879.3078
3407.460, 885.6210
3409.389, 891.8549
3411.317, 883.5139
3413.246, 873.1212
3415.174, 867.6326
3417.103, 871.7780
3419.031, 876.1053
3420.959, 864.0247
3422.888, 843.1319
3424.816, 835.9836
3426.745, 837.2355
3428.673, 835.9286
3430.602, 825.4205
3432.530, 831.1871
3434.459, 822.1019
3436.387, 808.5466
3438.316, 806.3914
3440.244, 822.3166
3442.173, 814.7512
3444.101, 803.6101
3446.030, 799.1238
3447.958, 799.8973
3449.886, 784.9296
3451.815, 756.2553
3453.743, 731.1583
3455.672, 701.2132
3457.600, 650.9258
3459.529, 636.9473
3461.457, 627.5252
3463.386, 602.1391
3465.314, 570.8975
3467.243, 559.6965
3469.171, 546.2907
3471.100, 546.4310
3473.028, 523.8050
3474.957, 482.1896
3476.885, 473.9182
3478.813, 452.9413
3480.742, 439.2095
3482.670, 429.5251
3484.599, 416.9492
3486.527, 396.9353
3488.456, 378.0770
3490.384, 353.3755
3492.313, 333.0949
3494.241, 322.9740
3496.170, 318.2714
3498.098, 310.4543
3500.027, 290.1956
3501.955, 278.2996
3503.884, 278.2281
3505.812, 265.8587
3507.740, 254.6271
3509.669, 253.2913
3511.597, 246.2143
3513.526, 232.7536
3515.454, 230.7740
3517.383, 221.2140
3519.311, 213.2840
3521.240, 202.8923
3523.168, 196.9379
3525.097, 208.9189
3527.025, 205.1984
3528.954, 205.9205
3530.882, 214.8512
3532.811, 219.2034
3534.739, 206.5365
3536.667, 214.9803
3538.596, 202.0903
3540.524, 188.0229
3542.453, 182.4454
3544.381, 180.7489
3546.310, 159.9821
3548.238, 160.2067
3550.167, 154.8201
3552.095, 146.5454
3554.024, 144.4185
3555.952, 142.9960
3557.881, 156.2941
3559.809, 148.4202
3561.738, 141.1391
3563.666, 143.4450
3565.594, 133.5682
3567.523, 129.9466
3569.451, 122.8918
3571.380, 117.9281
3573.308, 117.1437
3575.237, 115.9171
3577.165, 97.59917
3579.094, 92.22047
3581.022, 95.04724
3582.951, 94.73203
3584.879, 89.25449
3586.808, 91.60213
3588.736, 88.31979
3590.665, 84.97844
3592.593, 81.44529
3594.521, 79.14217
3596.450, 79.97176
3598.378, 73.61819
3600.307, 80.69872
3602.235, 78.22305
3604.164, 71.65860
3606.092, 72.37297
3608.021, 79.47543
3609.949, 73.39437
3611.878, 69.03205
3613.806, 71.10143
3615.735, 76.90389
3617.663, 81.39012
3619.592, 77.39901
3621.520, 76.61053
3623.448, 68.28530
3625.377, 68.12643
3627.305, 78.30327
3629.234, 74.49828
3631.162, 66.98762
3633.091, 73.69760
3635.019, 67.55591
3636.948, 61.09315
3638.876, 68.68016
3640.805, 60.77279
3642.733, 61.45573
3644.662, 60.12376
3646.590, 61.20822
3648.519, 63.17374
3650.447, 60.67016
3652.375, 56.96304
3654.304, 55.13305
3656.232, 51.22460
3658.161, 50.48640
3660.089, 53.70460
3662.018, 56.34879
3663.946, 54.35958
3665.875, 56.09064
3667.803, 57.50868
3669.732, 60.32859
3671.660, 65.09752
3673.589, 69.26329
3675.517, 69.83568
3677.446, 58.16956
3679.374, 66.09206
3681.302, 71.80495
3683.231, 64.50809
3685.159, 59.32111
3687.088, 57.57261
3689.016, 57.65568
3690.945, 53.64851
3692.873, 53.92739
3694.802, 56.09231
3696.730, 49.08707
3698.659, 45.66438
3700.587, 50.36981
3702.516, 49.76647
3704.444, 48.85297
3706.373, 50.05774
3708.301, 48.71946
3710.229, 39.49163
3712.158, 30.04932
3714.086, 30.53843
3716.015, 35.64162
3717.943, 34.21089
3719.872, 26.64606
3721.800, 35.46520
3723.729, 36.94131
3725.657, 32.73969
3727.586, 35.37456
3729.514, 34.59735
3731.443, 27.51000
3733.371, 32.68274
3735.300, 28.13863
3737.228, 27.00699
3739.156, 28.50376
3741.085, 32.90632
3743.013, 38.18544
3744.942, 39.25383
3746.870, 27.58767
3748.799, 35.21212
3750.727, 35.69646
3752.656, 32.58830
3754.584, 34.86544
3756.513, 41.03704
3758.441, 39.83822
3760.370, 37.17092
3762.298, 37.87944
3764.227, 41.88653
3766.155, 42.86900
3768.083, 40.49399
3770.012, 37.51490
3771.940, 30.94613
3773.869, 29.50916
3775.797, 40.34008
3777.726, 38.17165
3779.654, 32.26661
3781.583, 32.02368
3783.511, 29.74981
3785.440, 20.14909
3787.368, 24.98258
3789.297, 25.77363
3791.225, 23.99934
3793.154, 24.47216
3795.082, 27.56223
3797.010, 29.58565
3798.939, 21.41265
3800.867, 22.85986
3802.796, 23.63278
3804.724, 29.50171
3806.653, 31.22484
3808.581, 26.25737
3810.510, 27.88647
3812.438, 25.77378
3814.367, 22.73481
3816.295, 27.41359
3818.224, 27.70567
3820.152, 24.24175
3822.081, 22.67388
3824.009, 23.83377
3825.938, 25.76404
3827.866, 25.46752
3829.794, 19.80400
3831.723, 21.72450
3833.651, 23.77183
3835.580, 21.95673
3837.508, 21.43622
3839.437, 17.00009
3841.365, 21.68087
3843.294, 21.64334
3845.222, 16.57001
3847.151, 16.21325
3849.079, 16.39025
3851.008, 12.79666
3852.936, 20.37519
3854.865, 8.621855
3856.793, 14.36137
3858.721, 16.61638
3860.650, 12.77445
3862.578, 14.62244
3864.507, 18.14738
3866.435, 11.62350
3868.364, 19.78408
3870.292, 17.08634
3872.221, 19.93216
3874.149, 14.03221
3876.078, 13.23526
3878.006, 19.96876
3879.935, 23.40215
3881.863, 19.79869
3883.792, 24.14360
3885.720, 17.41902
3887.648, 15.48294
3889.577, 17.10414
3891.505, 18.51486
3893.434, 19.64239
3895.362, 19.26031
3897.291, 14.41121
3899.219, 15.50284
3901.148, 17.41822
3903.076, 16.96140
3905.005, 11.63261
3906.933, 12.17162
3908.862, 16.48094
3910.790, 16.35012
3912.719, 13.60606
3914.647, 18.62122
3916.575, 20.43488
3918.504, 15.03010
3920.432, 15.74285
3922.361, 17.40802
3924.289, 13.63328
3926.218, 10.80268
3928.146, 16.69888
3930.075, 16.51857
3932.003, 19.40960
3933.932, 20.00042
3935.860, 16.47628
3937.789, 15.65197
3939.717, 16.58200
3941.646, 14.98538
3943.574, 12.84951
3945.502, 16.36217
3947.431, 16.99092
3949.359, 15.93425
3951.288, 9.294386
3953.216, 12.95207
3955.145, 14.52845
3957.073, 14.88349
3959.002, 15.24212
3960.930, 12.27645
3962.859, 12.52290
3964.787, 13.53062
3966.716, 11.80819
3968.644, 14.16964
3970.573, 13.73266
3972.501, 8.968066
3974.429, 10.30892
3976.358, 11.53871
3978.286, 6.825207
3980.215, 8.723957
3982.143, 9.156637
3984.072, 8.572663
3986.000, 7.928034
3987.929, 7.235904
3989.857, 8.355503
3991.786, 6.583110
3993.714, 5.474844
3995.643, 8.884593
3997.571, 8.447530
3999.500, 1.423292
4001.428, 4.717135
4003.356, 7.597363
4005.285, 8.934693
4007.213, 8.488970
4009.142, 6.187234
4011.070, 4.812964
4012.999, 7.392668
4014.927, 9.323460
4016.856, -0.6609617
4018.784, 0.7944527
4020.713, -1.401801
4022.641, 6.691145
4024.570, 8.603552
4026.498, 10.02567
4028.427, 7.418124
4030.355, -0.6774368
4032.283, 9.970920
4034.212, 10.08853
4036.140, 4.518006
4038.069, 6.395597
4039.997, 7.513467
4041.926, 4.919455
4043.854, 5.625009
4045.783, 4.985862
4047.711, 1.474806
4049.640, 0.8718174
4051.568, 3.187595
4053.497, 5.541330
4055.425, 7.844266
4057.354, 11.63584
4059.282, 7.310668
4061.210, 8.046968
4063.139, 6.072640
4065.067, 3.516248
4066.996, 6.711369
4068.924, 10.66482
4070.853, 7.801992
4072.781, 5.967141
4074.710, 3.980819
4076.638, 6.117333
4078.567, 6.272595
4080.495, 9.318565
4082.424, 3.757248
4084.352, 4.713299
4086.281, 7.355201
4088.209, 6.659071
4090.137, 6.414514
4092.066, 5.033516
4093.994, 4.081037
4095.923, 8.226829
4097.851, 7.438765
4099.780, 7.306836
4101.708, 6.700104
4103.637, 7.148317
4105.565, 5.919118
4107.494, 9.610411
4109.422, 6.339029
4111.351, -0.7138597
4113.279, 4.103107
4115.208, 5.029533
4117.136, 3.745341
4119.064, 10.52265
4120.993, 10.67253
4122.921, 5.194832
4124.850, 5.416829
4126.778, 2.031945
4128.707, 3.205854
4130.635, 0.9919706
4132.563, -2.906463
4134.492, -0.8584535
4136.420, 3.617176
4138.349, 6.014224
4140.277, 7.271299
4142.206, 6.565740
4144.134, 9.162772
4146.063, 7.236577
4147.991, 6.524224
4149.920, 3.430613
4151.848, 3.773831
4153.777, 8.052786
4155.705, 6.744654
4157.634, 3.037727
4159.562, 4.443239
4161.491, 5.839557
4163.419, 2.377005
4165.348, 5.848249
4167.276, 5.470319
4169.205, 2.884767
4171.133, 3.543069
4173.062, 6.218639
4174.990, 6.058832
4176.918, 3.322487
4178.847, 5.147219
4180.775, 0.6393849
4182.704, -9.8611943E-02
4184.632, 3.076909
4186.561, 2.482854
4188.489, 4.404445
4190.417, 8.453540
4192.346, 6.040117
4194.274, 2.835985
4196.203, 3.011268
4198.131, 7.763620
4200.060, 3.801750
4201.988, 6.769476
4203.917, 9.251216
4205.845, 7.922637
4207.774, 9.162183
4209.702, 6.345811
4211.631, 8.062127
4213.559, 9.763205
4215.488, 7.422882
4217.416, 6.032393
4219.345, 1.740529
4221.273, 5.496720
4223.202, 8.129636
4225.130, 3.792352
4227.059, 1.441589
4228.987, 2.693149
4230.916, 7.824915
4232.844, 2.792433
4234.772, 7.324941
4236.701, 6.636161
4238.629, 2.231458
4240.558, 0.8124902
4242.486, 1.658388
4244.415, 6.612626
4246.343, 6.564949
4248.271, 6.402738
4250.200, 12.11192
4252.128, 6.727841
4254.057, 3.113763
4255.985, 5.936809
4257.914, 6.867866
4259.842, 10.83094
4261.771, 6.473483
4263.699, 9.031922
4265.628, 2.106866
4267.556, 13.40445
4269.485, 6.168206
4271.413, 5.226346
4273.342, 6.842919
4275.270, 5.638415
4277.199, 4.799629
4279.127, 4.262308
4281.056, 7.502547
4282.984, 7.372674
4284.913, 3.100139
4286.841, 3.059183
4288.770, 4.341937
4290.698, 4.417724
4292.626, 3.845489
4294.555, 7.474853
4296.483, 6.867554
4298.412, 8.649360
4300.340, 15.33029
4302.269, 2.948452
4304.197, 0.2387209
4306.125, -1.419268
4308.054, 6.767428
4309.982, 5.962740
4311.911, 7.196625
4313.839, 7.454770
4315.768, 0.9560777
4317.696, 1.984892
4319.625, 9.410810
4321.553, 6.164334
4323.482, 5.135453
4325.410, 5.599649
4327.339, 3.796851
4329.267, 7.895185
4331.196, 8.432135
4333.124, 2.866040
4335.053, 3.527622
4336.981, 5.832459
4338.910, 8.358429
4340.838, 5.053215
4342.767, 6.342456
4344.695, 7.765671
4346.624, 7.481904
4348.552, 1.677318
4350.480, 5.456206
4352.409, 3.147563
4354.337, 0.4752361
4356.266, 6.928117
4358.194, 5.449565
4360.123, 9.838794
4362.051, 15.07693
4363.979, 12.00240
4365.908, 7.395287
4367.836, 5.869506
4369.765, 5.585929
4371.693, 1.720509
4373.622, 1.466571
4375.550, 10.64431
4377.479, 5.692890
4379.407, 1.982339
4381.336, 0.5093108
4383.264, 0.0000000E+00
4385.193, 0.0000000E+00
4387.121, 0.0000000E+00
4389.050, 0.0000000E+00
4390.978, 0.0000000E+00
4392.907, 0.0000000E+00
4394.835, 0.0000000E+00
4396.764, 0.0000000E+00
4398.692, 0.0000000E+00
4400.621, 0.0000000E+00
4402.549, 0.0000000E+00
4404.478, 0.0000000E+00
4406.406, 0.0000000E+00
4408.334, 0.0000000E+00
4410.263, 0.0000000E+00
4412.191, 0.0000000E+00
4414.120, 0.0000000E+00
4416.048, 0.0000000E+00
4417.977, 0.0000000E+00
4419.905, 0.0000000E+00
4421.833, 0.0000000E+00
4423.762, 0.0000000E+00
4425.690, 0.0000000E+00
4427.619, 0.0000000E+00
4429.547, 0.0000000E+00
4431.476, 0.0000000E+00
4433.404, 0.0000000E+00
4435.333, 0.0000000E+00
4437.261, 0.0000000E+00
4439.190, 0.0000000E+00
4441.118, 0.0000000E+00
4443.047, 0.0000000E+00
4444.975, 0.0000000E+00
4446.904, 0.0000000E+00
4448.832, 0.0000000E+00
4450.761, 0.0000000E+00
4452.689, 0.0000000E+00
4454.618, 0.0000000E+00
4456.546, 0.0000000E+00
4458.475, 0.0000000E+00
4460.403, 0.0000000E+00
4462.332, 0.0000000E+00
4464.260, 0.0000000E+00
4466.188, 0.0000000E+00
4468.117, 0.0000000E+00
4470.045, 0.0000000E+00
4471.974, 0.0000000E+00
4473.902, 0.0000000E+00
4475.831, 0.0000000E+00
4477.759, 0.0000000E+00
4479.688, 0.0000000E+00
4481.616, 0.0000000E+00
4483.544, 0.0000000E+00
4485.473, 0.0000000E+00
4487.401, 0.0000000E+00
4489.330, 0.0000000E+00
4491.258, 0.0000000E+00
4493.187, 0.0000000E+00
4495.115, 0.0000000E+00
4497.044, 0.0000000E+00
4498.972, 0.0000000E+00
4500.901, 0.0000000E+00
4502.829, 0.0000000E+00
4504.758, 0.0000000E+00
4506.686, 0.0000000E+00
4508.615, 0.0000000E+00
4510.543, 0.0000000E+00
4512.472, 0.0000000E+00
4514.400, 0.0000000E+00
4516.329, 0.0000000E+00
4518.257, 0.0000000E+00
4520.186, 0.0000000E+00
4522.114, 0.0000000E+00
4524.042, 0.0000000E+00
4525.971, 0.0000000E+00
4527.899, 0.0000000E+00
4529.828, 0.0000000E+00
4531.756, 0.0000000E+00
4533.685, 0.0000000E+00
4535.613, 0.0000000E+00
4537.542, 0.0000000E+00
4539.470, 0.0000000E+00
4541.398, 0.0000000E+00
4543.327, 0.0000000E+00
4545.255, 0.0000000E+00
4547.184, 0.0000000E+00
4549.112, 0.0000000E+00
4551.041, 0.0000000E+00
4552.969, 0.0000000E+00
4554.898, 0.0000000E+00
4556.826, 0.0000000E+00
4558.755, 0.0000000E+00
4560.683, 0.0000000E+00
4562.612, 0.0000000E+00
4564.540, 0.0000000E+00
4566.469, 0.0000000E+00
4568.397, 0.0000000E+00
4570.326, 0.0000000E+00
4572.254, 0.0000000E+00
4574.183, 0.0000000E+00
4576.111, 0.0000000E+00
4578.040, 0.0000000E+00
4579.968, 0.0000000E+00
4581.896, 0.0000000E+00
4583.825, 0.0000000E+00
4585.753, 0.0000000E+00
4587.682, 0.0000000E+00
4589.610, 0.0000000E+00
4591.539, 0.0000000E+00
4593.467, 0.0000000E+00
4595.396, 0.0000000E+00
4597.324, 0.0000000E+00
4599.252, 0.0000000E+00
4601.181, 0.0000000E+00
4603.109, 0.0000000E+00
4605.038, 0.0000000E+00
4606.966, 0.0000000E+00
4608.895, 0.0000000E+00
4610.823, 0.0000000E+00
4612.752, 0.0000000E+00
4614.680, 0.0000000E+00
4616.609, 0.0000000E+00
4618.537, 0.0000000E+00
4620.466, 0.0000000E+00
4622.394, 0.0000000E+00
4624.323, 0.0000000E+00
4626.251, 0.0000000E+00
4628.180, 0.0000000E+00
4630.108, 0.0000000E+00
4632.037, 0.0000000E+00
4633.965, 0.0000000E+00
4635.894, 0.0000000E+00
4637.822, 0.0000000E+00
4639.750, 0.0000000E+00
4641.679, 0.0000000E+00
4643.607, 0.0000000E+00
4645.536, 0.0000000E+00
4647.464, 0.0000000E+00
4649.393, 0.0000000E+00
4651.321, 0.0000000E+00
4653.250, 0.0000000E+00
4655.178, 0.0000000E+00
4657.106, 0.0000000E+00
4659.035, 0.0000000E+00
4660.963, 0.0000000E+00
4662.892, 0.0000000E+00
4664.820, 0.0000000E+00
4666.749, 0.0000000E+00
4668.677, 0.0000000E+00
4670.606, 0.0000000E+00
4672.534, 0.0000000E+00
4674.463, 0.0000000E+00
4676.391, 0.0000000E+00
4678.320, 0.0000000E+00
4680.248, 0.0000000E+00
4682.177, 0.0000000E+00
4684.105, 0.0000000E+00
4686.034, 0.0000000E+00
4687.962, 0.0000000E+00
4689.891, 0.0000000E+00
4691.819, 0.0000000E+00
4693.748, 0.0000000E+00
4695.676, 0.0000000E+00
4697.604, 0.0000000E+00
4699.533, 0.0000000E+00
4701.461, 0.0000000E+00
4703.390, 0.0000000E+00
4705.318, 0.0000000E+00
4707.247, 0.0000000E+00
4709.175, 0.0000000E+00
4711.104, 0.0000000E+00
4713.032, 0.0000000E+00
4714.960, 0.0000000E+00
4716.889, 0.0000000E+00
4718.817, 0.0000000E+00
4720.746, 0.0000000E+00
4722.674, 0.0000000E+00
4724.603, 0.0000000E+00
4726.531, 0.0000000E+00
4728.460, 0.0000000E+00
4730.388, 0.0000000E+00
4732.317, 0.0000000E+00
4734.245, 0.0000000E+00
4736.174, 0.0000000E+00
4738.102, 0.0000000E+00
4740.031, 0.0000000E+00
4741.959, 0.0000000E+00
4743.888, 0.0000000E+00
4745.816, 0.0000000E+00
4747.745, 0.0000000E+00
4749.673, 0.0000000E+00
4751.602, 0.0000000E+00
4753.530, 0.0000000E+00
4755.458, 0.0000000E+00
4757.387, 0.0000000E+00
4759.315, 0.0000000E+00
4761.244, 0.0000000E+00
4763.172, 0.0000000E+00
4765.101, 0.0000000E+00
4767.029, 0.0000000E+00
4768.958, 0.0000000E+00
4770.886, 0.0000000E+00
4772.814, 0.0000000E+00
4774.743, 0.0000000E+00
4776.671, 0.0000000E+00
4778.600, 0.0000000E+00
4780.528, 0.0000000E+00
4782.457, 0.0000000E+00
4784.385, 0.0000000E+00
4786.314, 0.0000000E+00
4788.242, 0.0000000E+00
4790.171, 0.0000000E+00
4792.099, 0.0000000E+00
4794.028, 0.0000000E+00
4795.956, 0.0000000E+00
4797.885, 0.0000000E+00
4799.813, 0.0000000E+00
4801.742, 0.0000000E+00
4803.670, 0.0000000E+00
4805.599, 0.0000000E+00
4807.527, 0.0000000E+00
4809.456, 0.0000000E+00
4811.384, 0.0000000E+00
4813.313, 0.0000000E+00
4815.241, 0.0000000E+00
4817.169, 0.0000000E+00
4819.098, 0.0000000E+00
4821.026, 0.0000000E+00
4822.955, 0.0000000E+00
4824.883, 0.0000000E+00
4826.812, 0.0000000E+00
4828.740, 0.0000000E+00
4830.668, 0.0000000E+00
4832.597, 0.0000000E+00
4834.525, 0.0000000E+00
4836.454, 0.0000000E+00
4838.382, 0.0000000E+00
4840.311, 0.0000000E+00
4842.239, 0.0000000E+00
4844.168, 0.0000000E+00
4846.096, 0.0000000E+00
4848.025, 0.0000000E+00
4849.953, 0.0000000E+00
4851.882, 0.0000000E+00
4853.810, 0.0000000E+00
4855.739, 0.0000000E+00
4857.667, 0.0000000E+00
4859.596, 0.0000000E+00
4861.524, 0.0000000E+00
4863.453, 0.0000000E+00
4865.381, 0.0000000E+00
4867.310, 0.0000000E+00
4869.238, 0.0000000E+00
4871.167, 0.0000000E+00
4873.095, 0.0000000E+00
4875.023, 0.0000000E+00
4876.952, 0.0000000E+00
4878.880, 0.0000000E+00
4880.809, 0.0000000E+00
4882.737, 0.0000000E+00
4884.666, 0.0000000E+00
4886.594, 0.0000000E+00
4888.522, 0.0000000E+00
4890.451, 0.0000000E+00
4892.379, 0.0000000E+00
4894.308, 0.0000000E+00
4896.236, 0.0000000E+00
4898.165, 0.0000000E+00
4900.093, 0.0000000E+00
4902.022, 0.0000000E+00
4903.950, 0.0000000E+00
4905.879, 0.0000000E+00
4907.807, 0.0000000E+00
4909.736, 0.0000000E+00
4911.664, 0.0000000E+00
4913.593, 0.0000000E+00
4915.521, 0.0000000E+00
4917.450, 0.0000000E+00
4919.378, 0.0000000E+00
4921.307, 0.0000000E+00
4923.235, 0.0000000E+00
4925.164, 0.0000000E+00
4927.092, 0.0000000E+00
4929.021, 0.0000000E+00
4930.949, 0.0000000E+00
4932.877, 0.0000000E+00
4934.806, 0.0000000E+00
4936.734, 0.0000000E+00
4938.663, 0.0000000E+00
4940.591, 0.0000000E+00
4942.520, 0.0000000E+00
4944.448, 0.0000000E+00
4946.376, 0.0000000E+00
4948.305, 0.0000000E+00
4950.233, 0.0000000E+00
4952.162, 0.0000000E+00
4954.090, 0.0000000E+00
4956.019, 0.0000000E+00
4957.947, 0.0000000E+00
4959.876, 0.0000000E+00
4961.804, 0.0000000E+00
4963.733, 0.0000000E+00
4965.661, 0.0000000E+00
4967.590, 0.0000000E+00
4969.518, 0.0000000E+00
4971.447, 0.0000000E+00
4973.375, 0.0000000E+00
4975.304, 0.0000000E+00
4977.232, 0.0000000E+00
4979.161, 0.0000000E+00
4981.089, 0.0000000E+00
4983.018, 0.0000000E+00
4984.946, 0.0000000E+00
4986.875, 0.0000000E+00
4988.803, 0.0000000E+00
4990.731, 0.0000000E+00
4992.660, 0.0000000E+00
4994.588, 0.0000000E+00
4996.517, 0.0000000E+00
4998.445, 0.0000000E+00
5000.374, 0.0000000E+00
5002.302, 0.0000000E+00
5004.230, 0.0000000E+00
5006.159, 0.0000000E+00
5008.087, 0.0000000E+00
5010.016, 0.0000000E+00
5011.944, 0.0000000E+00
5013.873, 0.0000000E+00
5015.801, 0.0000000E+00
5017.730, 0.0000000E+00
5019.658, 0.0000000E+00
5021.587, 0.0000000E+00
5023.515, 0.0000000E+00
5025.444, 0.0000000E+00
5027.372, 0.0000000E+00
5029.301, 0.0000000E+00
5031.229, 0.0000000E+00
5033.158, 0.0000000E+00
5035.086, 0.0000000E+00
5037.015, 0.0000000E+00
5038.943, 0.0000000E+00
5040.872, 0.0000000E+00
5042.800, 0.0000000E+00
5044.729, 0.0000000E+00
5046.657, 0.0000000E+00
5048.585, 0.0000000E+00
5050.514, 0.0000000E+00
5052.442, 0.0000000E+00
5054.371, 0.0000000E+00
5056.299, 0.0000000E+00
5058.228, 0.0000000E+00
5060.156, 0.0000000E+00
5062.084, 0.0000000E+00
5064.013, 0.0000000E+00
5065.941, 0.0000000E+00
5067.870, 0.0000000E+00
5069.798, 0.0000000E+00
5071.727, 0.0000000E+00
5073.655, 0.0000000E+00
5075.584, 0.0000000E+00
5077.512, 0.0000000E+00
5079.441, 0.0000000E+00
5081.369, 0.0000000E+00
5083.298, 0.0000000E+00
5085.226, 0.0000000E+00
5087.155, 0.0000000E+00
5089.083, 0.0000000E+00
5091.012, 0.0000000E+00
5092.940, 0.0000000E+00
5094.869, 0.0000000E+00
5096.797, 0.0000000E+00
5098.726, 0.0000000E+00
5100.654, 0.0000000E+00
5102.583, 0.0000000E+00
5104.511, 0.0000000E+00
5106.439, 0.0000000E+00
5108.368, 0.0000000E+00
5110.296, 0.0000000E+00
5112.225, 0.0000000E+00
5114.153, 0.0000000E+00
5116.082, 0.0000000E+00
5118.010, 0.0000000E+00
5119.938, 0.0000000E+00
5121.867, 0.0000000E+00
5123.795, 0.0000000E+00
5125.724, 0.0000000E+00
5127.652, 0.0000000E+00
5129.581, 0.0000000E+00
5131.509, 0.0000000E+00
5133.438, 0.0000000E+00
5135.366, 0.0000000E+00
5137.295, 0.0000000E+00
5139.223, 0.0000000E+00
5141.152, 0.0000000E+00
5143.080, 0.0000000E+00
5145.009, 0.0000000E+00
5146.937, 0.0000000E+00
5148.866, 0.0000000E+00
5150.794, 0.0000000E+00
5152.723, 0.0000000E+00
5154.651, 0.0000000E+00
5156.580, 0.0000000E+00
5158.508, 0.0000000E+00
5160.437, 0.0000000E+00
5162.365, 0.0000000E+00
5164.293, 0.0000000E+00
5166.222, 0.0000000E+00
5168.150, 0.0000000E+00
5170.079, 0.0000000E+00
5172.007, 0.0000000E+00
5173.936, 0.0000000E+00
5175.864, 0.0000000E+00
5177.792, 0.0000000E+00
5179.721, 0.0000000E+00
5181.649, 0.0000000E+00
5183.578, 0.0000000E+00
5185.506, 0.0000000E+00
5187.435, 0.0000000E+00
5189.363, 0.0000000E+00
5191.292, 0.0000000E+00
5193.220, 0.0000000E+00
5195.149, 0.0000000E+00
5197.077, 0.0000000E+00
5199.006, 0.0000000E+00
5200.934, 0.0000000E+00
5202.863, 0.0000000E+00
5204.791, 0.0000000E+00
5206.720, 0.0000000E+00
5208.648, 0.0000000E+00
5210.577, 0.0000000E+00
5212.505, 0.0000000E+00
5214.434, 0.0000000E+00
5216.362, 0.0000000E+00
5218.291, 0.0000000E+00
5220.219, 0.0000000E+00
5222.147, 0.0000000E+00
5224.076, 0.0000000E+00
5226.004, 0.0000000E+00
5227.933, 0.0000000E+00
5229.861, 0.0000000E+00
5231.790, 0.0000000E+00
5233.718, 0.0000000E+00
5235.646, 0.0000000E+00
5237.575, 0.0000000E+00
5239.503, 0.0000000E+00
5241.432, 0.0000000E+00
5243.360, 0.0000000E+00
5245.289, 0.0000000E+00
5247.217, 0.0000000E+00
5249.146, 0.0000000E+00
5251.074, 0.0000000E+00
5253.003, 0.0000000E+00
5254.931, 0.0000000E+00
5256.860, 0.0000000E+00
5258.788, 0.0000000E+00
5260.717, 0.0000000E+00
5262.645, 0.0000000E+00
5264.574, 0.0000000E+00
5266.502, 0.0000000E+00
5268.431, 0.0000000E+00
5270.359, 0.0000000E+00
5272.288, 0.0000000E+00
5274.216, 0.0000000E+00
5276.145, 0.0000000E+00
5278.073, 0.0000000E+00
5280.001, 0.0000000E+00
5281.930, 0.0000000E+00
5283.858, 0.0000000E+00
5285.787, 0.0000000E+00
5287.715, 0.0000000E+00
5289.644, 0.0000000E+00
5291.572, 0.0000000E+00
5293.500, 0.0000000E+00
5295.429, 0.0000000E+00
5297.357, 0.0000000E+00
5299.286, 0.0000000E+00
5301.214, 0.0000000E+00
5303.143, 0.0000000E+00
5305.071, 0.0000000E+00
5307.000, 0.0000000E+00
5308.928, 0.0000000E+00
5310.857, 0.0000000E+00
5312.785, 0.0000000E+00
5314.714, 0.0000000E+00
5316.642, 0.0000000E+00
5318.571, 0.0000000E+00
5320.499, 0.0000000E+00
5322.428, 0.0000000E+00
5324.356, 0.0000000E+00
5326.285, 0.0000000E+00
5328.213, 0.0000000E+00
5330.142, 0.0000000E+00
5332.070, 0.0000000E+00
5333.999, 0.0000000E+00
5335.927, 0.0000000E+00
5337.855, 0.0000000E+00
5339.784, 0.0000000E+00
5341.712, 0.0000000E+00
5343.641, 0.0000000E+00
5345.569, 0.0000000E+00
5347.498, 0.0000000E+00
5349.426, 0.0000000E+00
5351.354, 0.0000000E+00
5353.283, 0.0000000E+00
5355.211, 0.0000000E+00
5357.140, 0.0000000E+00
5359.068, 0.0000000E+00
5360.997, 0.0000000E+00
5362.925, 0.0000000E+00
5364.854, 0.0000000E+00
5366.782, 0.0000000E+00
5368.711, 0.0000000E+00
5370.639, 0.0000000E+00
5372.568, 0.0000000E+00
5374.496, 0.0000000E+00
5376.425, 0.0000000E+00
5378.353, 0.0000000E+00
5380.282, 0.0000000E+00
5382.210, 0.0000000E+00
5384.139, 0.0000000E+00
5386.067, 0.0000000E+00
5387.996, 0.0000000E+00
5389.924, 0.0000000E+00
5391.853, 0.0000000E+00
5393.781, 0.0000000E+00
5395.709, 0.0000000E+00
5397.638, 0.0000000E+00
5399.566, 0.0000000E+00
5401.495, 0.0000000E+00
5403.423, 0.0000000E+00
5405.352, 0.0000000E+00
5407.280, 0.0000000E+00
5409.208, 0.0000000E+00
5411.137, 0.0000000E+00
5413.065, 0.0000000E+00
5414.994, 0.0000000E+00
5416.922, 0.0000000E+00
5418.851, 0.0000000E+00
5420.779, 0.0000000E+00
5422.708, 0.0000000E+00
5424.636, 0.0000000E+00
5426.565, 0.0000000E+00
5428.493, 0.0000000E+00
5430.422, 0.0000000E+00
5432.350, 0.0000000E+00
5434.279, 0.0000000E+00
5436.207, 0.0000000E+00
5438.136, 0.0000000E+00
5440.064, 0.0000000E+00
5441.993, 0.0000000E+00
5443.921, 0.0000000E+00
5445.850, 0.0000000E+00
5447.778, 0.0000000E+00
5449.707, 0.0000000E+00
5451.635, 0.0000000E+00
5453.563, 0.0000000E+00
5455.492, 0.0000000E+00
5457.420, 0.0000000E+00
5459.349, 0.0000000E+00
5461.277, 0.0000000E+00
5463.206, 0.0000000E+00
5465.134, 0.0000000E+00
5467.063, 0.0000000E+00
5468.991, 0.0000000E+00
5470.919, 0.0000000E+00
5472.848, 0.0000000E+00
5474.776, 0.0000000E+00
5476.705, 0.0000000E+00
5478.633, 0.0000000E+00
5480.562, 0.0000000E+00
5482.490, 0.0000000E+00
5484.419, 0.0000000E+00
5486.347, 0.0000000E+00
5488.276, 0.0000000E+00
5490.204, 0.0000000E+00
5492.133, 0.0000000E+00
5494.061, 0.0000000E+00
5495.990, 0.0000000E+00
5497.918, 0.0000000E+00
5499.847, 0.0000000E+00
5501.775, 0.0000000E+00
5503.704, 0.0000000E+00
5505.632, 0.0000000E+00
5507.561, 0.0000000E+00
5509.489, 0.0000000E+00
5511.417, 0.0000000E+00
5513.346, 0.0000000E+00
5515.274, 0.0000000E+00
5517.203, 0.0000000E+00
5519.131, 0.0000000E+00
5521.060, 0.0000000E+00
5522.988, 0.0000000E+00
5524.917, 0.0000000E+00
5526.845, 0.0000000E+00
5528.773, 0.0000000E+00
5530.702, 0.0000000E+00
5532.630, 0.0000000E+00
5534.559, 0.0000000E+00
5536.487, 0.0000000E+00
5538.416, 0.0000000E+00
5540.344, 0.0000000E+00
5542.273, 0.0000000E+00
5544.201, 0.0000000E+00
5546.130, 0.0000000E+00
5548.058, 0.0000000E+00
5549.987, 0.0000000E+00
5551.915, 0.0000000E+00
5553.844, 0.0000000E+00
5555.772, 0.0000000E+00
5557.701, 0.0000000E+00
5559.629, 0.0000000E+00
5561.558, 0.0000000E+00
5563.486, 0.0000000E+00
5565.415, 0.0000000E+00
5567.343, 0.0000000E+00
5569.271, 0.0000000E+00
5571.200, 0.0000000E+00
5573.128, 0.0000000E+00
5575.057, 0.0000000E+00
5576.985, 0.0000000E+00
5578.914, 0.0000000E+00
5580.842, 0.0000000E+00
5582.771, 0.0000000E+00
5584.699, 0.0000000E+00
5586.627, 0.0000000E+00
5588.556, 0.0000000E+00
5590.484, 0.0000000E+00
5592.413, 0.0000000E+00
5594.341, 0.0000000E+00
5596.270, 0.0000000E+00
5598.198, 0.0000000E+00
5600.127, 0.0000000E+00
5602.055, 0.0000000E+00
5603.984, 0.0000000E+00
5605.912, 0.0000000E+00
5607.841, 0.0000000E+00
5609.769, 0.0000000E+00
5611.698, 0.0000000E+00
5613.626, 0.0000000E+00
5615.555, 0.0000000E+00
5617.483, 0.0000000E+00
5619.412, 0.0000000E+00
5621.340, 0.0000000E+00
5623.269, 0.0000000E+00
5625.197, 0.0000000E+00
5627.125, 0.0000000E+00
5629.054, 0.0000000E+00
5630.982, 0.0000000E+00
5632.911, 0.0000000E+00
5634.839, 0.0000000E+00
5636.768, 0.0000000E+00
5638.696, 0.0000000E+00
5640.625, 0.0000000E+00
5642.553, 0.0000000E+00
5644.481, 0.0000000E+00
5646.410, 0.0000000E+00
5648.338, 0.0000000E+00
5650.267, 0.0000000E+00
5652.195, 0.0000000E+00
5654.124, 0.0000000E+00
5656.052, 0.0000000E+00
5657.981, 0.0000000E+00
5659.909, 0.0000000E+00
5661.838, 0.0000000E+00
5663.766, 0.0000000E+00
5665.695, 0.0000000E+00
5667.623, 0.0000000E+00
5669.552, 0.0000000E+00
5671.480, 0.0000000E+00
5673.409, 0.0000000E+00
5675.337, 0.0000000E+00
5677.266, 0.0000000E+00
5679.194, 0.0000000E+00
5681.123, 0.0000000E+00
5683.051, 0.0000000E+00
5684.979, 0.0000000E+00
5686.908, 0.0000000E+00
5688.836, 0.0000000E+00
5690.765, 0.0000000E+00
5692.693, 0.0000000E+00
5694.622, 0.0000000E+00
5696.550, 0.0000000E+00
5698.479, 0.0000000E+00
5700.407, 0.0000000E+00
5702.335, 0.0000000E+00
5704.264, 0.0000000E+00
5706.192, 0.0000000E+00
5708.121, 0.0000000E+00
5710.049, 0.0000000E+00
5711.978, 0.0000000E+00
5713.906, 0.0000000E+00
5715.835, 0.0000000E+00
5717.763, 0.0000000E+00
5719.692, 0.0000000E+00
5721.620, 0.0000000E+00
5723.549, 0.0000000E+00
5725.477, 0.0000000E+00
5727.406, 0.0000000E+00
5729.334, 0.0000000E+00
5731.263, 0.0000000E+00
5733.191, 0.0000000E+00
5735.120, 0.0000000E+00
5737.048, 0.0000000E+00
5738.977, 0.0000000E+00
5740.905, 0.0000000E+00
5742.833, 0.0000000E+00
5744.762, 0.0000000E+00
5746.690, 0.0000000E+00
5748.619, 0.0000000E+00
5750.547, 0.0000000E+00
5752.476, 0.0000000E+00
5754.404, 0.0000000E+00
5756.333, 0.0000000E+00
5758.261, 0.0000000E+00
5760.189, 0.0000000E+00
5762.118, 0.0000000E+00
5764.046, 0.0000000E+00
5765.975, 0.0000000E+00
5767.903, 0.0000000E+00
5769.832, 0.0000000E+00
5771.760, 0.0000000E+00
5773.689, 0.0000000E+00
5775.617, 0.0000000E+00
5777.546, 0.0000000E+00
5779.474, 0.0000000E+00
5781.403, 0.0000000E+00
5783.331, 0.0000000E+00
5785.260, 0.0000000E+00
5787.188, 0.0000000E+00
5789.117, 0.0000000E+00
5791.045, 0.0000000E+00
5792.974, 0.0000000E+00
5794.902, 0.0000000E+00
5796.831, 0.0000000E+00
5798.759, 0.0000000E+00
5800.688, 0.0000000E+00
5802.616, 0.0000000E+00
5804.544, 0.0000000E+00
5806.473, 0.0000000E+00
5808.401, 0.0000000E+00
5810.330, 0.0000000E+00
5812.258, 0.0000000E+00
5814.187, 0.0000000E+00
5816.115, 0.0000000E+00
5818.043, 0.0000000E+00
5819.972, 0.0000000E+00
5821.900, 0.0000000E+00
5823.829, 0.0000000E+00
5825.757, 0.0000000E+00
5827.686, 0.0000000E+00
5829.614, 0.0000000E+00
5831.543, 0.0000000E+00
5833.471, 0.0000000E+00
5835.400, 0.0000000E+00
5837.328, 0.0000000E+00
5839.257, 0.0000000E+00
5841.185, 0.0000000E+00
5843.114, 0.0000000E+00
5845.042, 0.0000000E+00
5846.971, 0.0000000E+00
5848.899, 0.0000000E+00
5850.828, 0.0000000E+00
5852.756, 0.0000000E+00
5854.685, 0.0000000E+00
5856.613, 0.0000000E+00
5858.542, 0.0000000E+00
5860.470, 0.0000000E+00
5862.398, 0.0000000E+00
5864.327, 0.0000000E+00
5866.255, 0.0000000E+00
5868.184, 0.0000000E+00
5870.112, 0.0000000E+00
5872.041, 0.0000000E+00
5873.969, 0.0000000E+00
5875.897, 0.0000000E+00
5877.826, 0.0000000E+00
5879.754, 0.0000000E+00
5881.683, 0.0000000E+00
5883.611, 0.0000000E+00
5885.540, 0.0000000E+00
5887.468, 0.0000000E+00
5889.397, 0.0000000E+00
5891.325, 0.0000000E+00
5893.254, 0.0000000E+00
5895.182, 0.0000000E+00
5897.111, 0.0000000E+00
5899.039, 0.0000000E+00
5900.968, 0.0000000E+00
5902.896, 0.0000000E+00
5904.825, 0.0000000E+00
5906.753, 0.0000000E+00
5908.682, 0.0000000E+00
5910.610, 0.0000000E+00
5912.539, 0.0000000E+00
5914.467, 0.0000000E+00
5916.396, 0.0000000E+00
5918.324, 0.0000000E+00
5920.252, 0.0000000E+00
5922.181, 0.0000000E+00
5924.109, 0.0000000E+00
5926.038, 0.0000000E+00
5927.966, 0.0000000E+00
5929.895, 0.0000000E+00
5931.823, 0.0000000E+00
5933.751, 0.0000000E+00
5935.680, 0.0000000E+00
5937.608, 0.0000000E+00
5939.537, 0.0000000E+00
5941.465, 0.0000000E+00
5943.394, 0.0000000E+00
5945.322, 0.0000000E+00
5947.251, 0.0000000E+00
5949.179, 0.0000000E+00
5951.108, 0.0000000E+00
5953.036, 0.0000000E+00
5954.965, 0.0000000E+00
5956.893, 0.0000000E+00
5958.822, 0.0000000E+00
5960.750, 0.0000000E+00
5962.679, 0.0000000E+00
5964.607, 0.0000000E+00
5966.536, 0.0000000E+00
5968.464, 0.0000000E+00
5970.393, 0.0000000E+00
5972.321, 0.0000000E+00
5974.250, 0.0000000E+00
5976.178, 0.0000000E+00
5978.106, 0.0000000E+00
5980.035, 0.0000000E+00
5981.963, 0.0000000E+00
5983.892, 0.0000000E+00
5985.820, 0.0000000E+00
5987.749, 0.0000000E+00
5989.677, 0.0000000E+00
5991.605, 0.0000000E+00
5993.534, 0.0000000E+00
5995.462, 0.0000000E+00
5997.391, 0.0000000E+00
5999.319, 0.0000000E+00
6001.248, 0.0000000E+00
6003.176, 0.0000000E+00
6005.105, 0.0000000E+00
6007.033, 0.0000000E+00
6008.962, 0.0000000E+00
6010.890, 0.0000000E+00
6012.819, 0.0000000E+00
6014.747, 0.0000000E+00
6016.676, 0.0000000E+00
6018.604, 0.0000000E+00
6020.533, 0.0000000E+00
6022.461, 0.0000000E+00
6024.390, 0.0000000E+00
6026.318, 0.0000000E+00
6028.247, 0.0000000E+00
6030.175, 0.0000000E+00
6032.104, 0.0000000E+00
6034.032, 0.0000000E+00
6035.960, 0.0000000E+00
6037.889, 0.0000000E+00
6039.817, 0.0000000E+00
6041.746, 0.0000000E+00
6043.674, 0.0000000E+00
6045.603, 0.0000000E+00
6047.531, 0.0000000E+00
6049.459, 0.0000000E+00
6051.388, 0.0000000E+00
6053.316, 0.0000000E+00
6055.245, 0.0000000E+00
6057.173, 0.0000000E+00
6059.102, 0.0000000E+00
6061.030, 0.0000000E+00
6062.959, 0.0000000E+00
6064.887, 0.0000000E+00
6066.816, 0.0000000E+00
6068.744, 0.0000000E+00
6070.673, 0.0000000E+00
6072.601, 0.0000000E+00
6074.530, 0.0000000E+00
6076.458, 0.0000000E+00
6078.387, 0.0000000E+00
6080.315, 0.0000000E+00
6082.244, 0.0000000E+00
6084.172, 0.0000000E+00
6086.101, 0.0000000E+00
6088.029, 0.0000000E+00
6089.958, 0.0000000E+00
6091.886, 0.0000000E+00
6093.814, 0.0000000E+00
6095.743, 0.0000000E+00
6097.671, 0.0000000E+00
6099.600, 0.0000000E+00
6101.528, 0.0000000E+00
6103.457, 0.0000000E+00
6105.385, 0.0000000E+00
6107.313, 0.0000000E+00
6109.242, 0.0000000E+00
6111.170, 0.0000000E+00
6113.099, 0.0000000E+00
6115.027, 0.0000000E+00
6116.956, 0.0000000E+00
6118.884, 0.0000000E+00
6120.813, 0.0000000E+00
6122.741, 0.0000000E+00
6124.670, 0.0000000E+00
6126.598, 0.0000000E+00
6128.527, 0.0000000E+00
6130.455, 0.0000000E+00
6132.384, 0.0000000E+00
6134.312, 0.0000000E+00
6136.241, 0.0000000E+00
6138.169, 0.0000000E+00
6140.098, 0.0000000E+00
6142.026, 0.0000000E+00
6143.955, 0.0000000E+00
6145.883, 0.0000000E+00
6147.812, 0.0000000E+00
6149.740, 0.0000000E+00
6151.668, 0.0000000E+00
6153.597, 0.0000000E+00
6155.525, 0.0000000E+00
6157.454, 0.0000000E+00
6159.382, 0.0000000E+00
6161.311, 0.0000000E+00
6163.239, 0.0000000E+00
6165.167, 0.0000000E+00
6167.096, 0.0000000E+00
6169.024, 0.0000000E+00
6170.953, 0.0000000E+00
6172.881, 0.0000000E+00
6174.810, 0.0000000E+00
6176.738, 0.0000000E+00
6178.667, 0.0000000E+00
6180.595, 0.0000000E+00
6182.524, 0.0000000E+00
6184.452, 0.0000000E+00
6186.381, 0.0000000E+00
6188.309, 0.0000000E+00
6190.238, 0.0000000E+00
6192.166, 0.0000000E+00
6194.095, 0.0000000E+00
6196.023, 0.0000000E+00
6197.952, 0.0000000E+00
6199.880, 0.0000000E+00
6201.809, 0.0000000E+00
6203.737, 0.0000000E+00
6205.666, 0.0000000E+00
6207.594, 0.0000000E+00
6209.522, 0.0000000E+00
6211.451, 0.0000000E+00
6213.379, 0.0000000E+00
6215.308, 0.0000000E+00
6217.236, 0.0000000E+00
6219.165, 0.0000000E+00
6221.093, 0.0000000E+00
6223.021, 0.0000000E+00
6224.950, 0.0000000E+00
6226.878, 0.0000000E+00
6228.807, 0.0000000E+00
6230.735, 0.0000000E+00
6232.664, 0.0000000E+00
6234.592, 0.0000000E+00
6236.521, 0.0000000E+00
6238.449, 0.0000000E+00
6240.378, 0.0000000E+00
6242.306, 0.0000000E+00
6244.235, 0.0000000E+00
6246.163, 0.0000000E+00
6248.092, 0.0000000E+00
6250.020, 0.0000000E+00
6251.949, 0.0000000E+00
6253.877, 0.0000000E+00
6255.806, 0.0000000E+00
6257.734, 0.0000000E+00
6259.663, 0.0000000E+00
6261.591, 0.0000000E+00
6263.520, 0.0000000E+00
6265.448, 0.0000000E+00
6267.376, 0.0000000E+00
6269.305, 0.0000000E+00
6271.233, 0.0000000E+00
6273.162, 0.0000000E+00
6275.090, 0.0000000E+00
6277.019, 0.0000000E+00
6278.947, 0.0000000E+00
6280.875, 0.0000000E+00
6282.804, 0.0000000E+00
6284.732, 0.0000000E+00
6286.661, 0.0000000E+00
6288.589, 0.0000000E+00
6290.518, 0.0000000E+00
6292.446, 0.0000000E+00
6294.375, 0.0000000E+00
6296.303, 0.0000000E+00
6298.232, 0.0000000E+00
6300.160, 0.0000000E+00
6302.089, 0.0000000E+00
6304.017, 0.0000000E+00
6305.946, 0.0000000E+00
6307.874, 0.0000000E+00
6309.803, 0.0000000E+00
6311.731, 0.0000000E+00
6313.660, 0.0000000E+00
6315.588, 0.0000000E+00
6317.517, 0.0000000E+00
6319.445, 0.0000000E+00
6321.374, 0.0000000E+00
6323.302, 0.0000000E+00
6325.230, 0.0000000E+00
6327.159, 0.0000000E+00
6329.087, 0.0000000E+00
6331.016, 0.0000000E+00
6332.944, 0.0000000E+00
6334.873, 0.0000000E+00
6336.801, 0.0000000E+00
6338.729, 0.0000000E+00
6340.658, 0.0000000E+00
6342.586, 0.0000000E+00
6344.515, 0.0000000E+00
6346.443, 0.0000000E+00
6348.372, 0.0000000E+00
6350.300, 0.0000000E+00
6352.229, 0.0000000E+00
6354.157, 0.0000000E+00
6356.086, 0.0000000E+00
6358.014, 0.0000000E+00
6359.943, 0.0000000E+00
6361.871, 0.0000000E+00
6363.800, 0.0000000E+00
6365.728, 0.0000000E+00
6367.657, 0.0000000E+00
6369.585, 0.0000000E+00
6371.514, 0.0000000E+00
6373.442, 0.0000000E+00
6375.371, 0.0000000E+00
6377.299, 0.0000000E+00
6379.228, 0.0000000E+00
6381.156, 0.0000000E+00
6383.084, 0.0000000E+00
6385.013, 0.0000000E+00
6386.941, 0.0000000E+00
6388.870, 0.0000000E+00
6390.798, 0.0000000E+00
6392.727, 0.0000000E+00
6394.655, 0.0000000E+00
6396.583, 0.0000000E+00
6398.512, 0.0000000E+00
6400.440, 0.0000000E+00
6402.369, 0.0000000E+00
6404.297, 0.0000000E+00
6406.226, 0.0000000E+00
6408.154, 0.0000000E+00
6410.083, 0.0000000E+00
6412.011, 0.0000000E+00
6413.940, 0.0000000E+00
6415.868, 0.0000000E+00
6417.797, 0.0000000E+00
6419.725, 0.0000000E+00
6421.654, 0.0000000E+00
6423.582, 0.0000000E+00
6425.511, 0.0000000E+00
6427.439, 0.0000000E+00
6429.368, 0.0000000E+00
6431.296, 0.0000000E+00
6433.225, 0.0000000E+00
6435.153, 0.0000000E+00
6437.082, 0.0000000E+00
6439.010, 0.0000000E+00
6440.938, 0.0000000E+00
6442.867, 0.0000000E+00
6444.795, 0.0000000E+00
6446.724, 0.0000000E+00
6448.652, 0.0000000E+00
6450.581, 0.0000000E+00
6452.509, 0.0000000E+00
6454.438, 0.0000000E+00
6456.366, 0.0000000E+00
6458.294, 0.0000000E+00
6460.223, 0.0000000E+00
6462.151, 0.0000000E+00
6464.080, 0.0000000E+00
6466.008, 0.0000000E+00
6467.937, 0.0000000E+00
6469.865, 0.0000000E+00
6471.794, 0.0000000E+00
6473.722, 0.0000000E+00
6475.651, 0.0000000E+00
6477.579, 0.0000000E+00
6479.508, 0.0000000E+00
6481.436, 0.0000000E+00
6483.365, 0.0000000E+00
6485.293, 0.0000000E+00
6487.222, 0.0000000E+00
6489.150, 0.0000000E+00
6491.079, 0.0000000E+00
6493.007, 0.0000000E+00
6494.936, 0.0000000E+00
6496.864, 0.0000000E+00
6498.792, 0.0000000E+00
6500.721, 0.0000000E+00
6502.649, 0.0000000E+00
6504.578, 0.0000000E+00
6506.506, 0.0000000E+00
6508.435, 0.0000000E+00
6510.363, 0.0000000E+00
6512.292, 0.0000000E+00
6514.220, 0.0000000E+00
6516.148, 0.0000000E+00
6518.077, 0.0000000E+00
6520.005, 0.0000000E+00
6521.934, 0.0000000E+00
6523.862, 0.0000000E+00
6525.791, 0.0000000E+00
6527.719, 0.0000000E+00
6529.648, 0.0000000E+00
6531.576, 0.0000000E+00
6533.505, 0.0000000E+00
6535.433, 0.0000000E+00
6537.362, 0.0000000E+00
6539.290, 0.0000000E+00
6541.219, 0.0000000E+00
6543.147, 0.0000000E+00
6545.076, 0.0000000E+00
6547.004, 0.0000000E+00
6548.933, 0.0000000E+00
6550.861, 0.0000000E+00
6552.790, 0.0000000E+00
6554.718, 0.0000000E+00
6556.646, 0.0000000E+00
6558.575, 0.0000000E+00
6560.503, 0.0000000E+00
6562.432, 0.0000000E+00
6564.360, 0.0000000E+00
6566.289, 0.0000000E+00
6568.217, 0.0000000E+00
6570.146, 0.0000000E+00
6572.074, 0.0000000E+00
6574.002, 0.0000000E+00
6575.931, 0.0000000E+00
6577.859, 0.0000000E+00
6579.788, 0.0000000E+00
6581.716, 0.0000000E+00
6583.645, 0.0000000E+00
6585.573, 0.0000000E+00
6587.502, 0.0000000E+00
6589.430, 0.0000000E+00
6591.359, 0.0000000E+00
6593.287, 0.0000000E+00
6595.216, 0.0000000E+00
6597.144, 0.0000000E+00
6599.073, 0.0000000E+00
6601.001, 0.0000000E+00
6602.930, 0.0000000E+00
6604.858, 0.0000000E+00
6606.787, 0.0000000E+00
6608.715, 0.0000000E+00
6610.644, 0.0000000E+00
6612.572, 0.0000000E+00
6614.500, 0.0000000E+00
6616.429, 0.0000000E+00
6618.357, 0.0000000E+00
6620.286, 0.0000000E+00
6622.214, 0.0000000E+00
6624.143, 0.0000000E+00
6626.071, 0.0000000E+00
6628.000, 0.0000000E+00
6629.928, 0.0000000E+00
6631.856, 0.0000000E+00
##END=



