##NAMES=Gypsum
##RRUFFID=R040029
##IDEAL CHEMISTRY=CaS^6+^O_4_&#183;2H_2_O
##LOCALITY=Twin Buttes, Pima County, Arizona, USA
##OWNER=RRUFF
##SOURCE=University of Arizona Mineral Museum
##DESCRIPTION=Colorless prismatic crystal
##STATUS=The identification of this mineral has been confirmed by X-ray diffraction.
##URL=rruff.info/R040029
123.7756, 802.1134
125.7041, 803.5725
127.6326, 806.4181
129.5611, 811.8603
131.4895, 818.1233
133.4180, 822.9331
135.3465, 826.2871
137.2749, 827.5706
139.2034, 825.6771
141.1319, 822.8125
143.0603, 819.7331
144.9888, 815.7766
146.9173, 810.1151
148.8457, 802.7517
150.7742, 795.1032
152.7027, 786.5289
154.6311, 778.6075
156.5596, 770.6351
158.4881, 764.3156
160.4165, 761.5137
162.3450, 761.9138
164.2735, 762.2471
166.2019, 761.6036
168.1304, 762.0167
170.0589, 764.9059
171.9873, 767.8667
173.9158, 769.3419
175.8443, 769.5497
177.7727, 769.2830
179.7012, 768.2086
181.6297, 767.2794
183.5581, 767.4040
185.4866, 766.4803
187.4151, 763.2451
189.3435, 758.2696
191.2720, 752.3971
193.2005, 745.2291
195.1289, 738.3201
197.0574, 730.7272
198.9859, 724.9057
200.9143, 723.2465
202.8428, 723.0309
204.7713, 722.0102
206.6997, 720.1632
208.6282, 717.1478
210.5567, 711.9929
212.4851, 708.7102
214.4136, 710.5873
216.3421, 712.2025
218.2705, 709.7516
220.1990, 704.2419
222.1275, 699.2498
224.0559, 694.8002
225.9844, 690.5119
227.9129, 686.0276
229.8413, 682.2593
231.7698, 679.8599
233.6983, 678.1702
235.6267, 676.3895
237.5552, 674.4429
239.4837, 672.0938
241.4121, 668.9186
243.3406, 666.9030
245.2691, 667.2293
247.1975, 668.3154
249.1260, 670.0263
251.0545, 671.7460
252.9829, 671.2854
254.9114, 668.5788
256.8399, 666.6837
258.7683, 666.4837
260.6968, 666.6520
262.6253, 667.0890
264.5537, 667.4131
266.4822, 666.7928
268.4107, 665.7572
270.3391, 666.1171
272.2676, 668.2505
274.1961, 670.4719
276.1245, 673.2548
278.0530, 675.1249
279.9815, 675.0483
281.9099, 673.8992
283.8384, 672.2911
285.7669, 670.4093
287.6953, 670.1290
289.6238, 672.6414
291.5523, 674.8066
293.4807, 676.1490
295.4092, 677.0433
297.3377, 677.9058
299.2661, 678.3876
301.1946, 677.8344
303.1231, 676.1918
305.0515, 675.2628
306.9800, 676.0278
308.9085, 676.2135
310.8369, 675.2053
312.7654, 673.6968
314.6939, 671.6588
316.6223, 669.6767
318.5508, 669.1906
320.4793, 671.0247
322.4077, 670.2943
324.3362, 665.4270
326.2647, 660.7501
328.1931, 656.4930
330.1216, 653.3051
332.0501, 652.4271
333.9785, 652.6485
335.9070, 651.2145
337.8355, 647.5579
339.7639, 645.5370
341.6924, 646.0673
343.6209, 645.8090
345.5493, 643.2950
347.4778, 640.7389
349.4063, 639.0289
351.3347, 638.2376
353.2632, 639.0570
355.1917, 641.7564
357.1201, 641.5703
359.0486, 637.1432
360.9771, 634.4996
362.9055, 635.4145
364.8340, 638.2949
366.7625, 642.4517
368.6909, 647.6812
370.6194, 654.1805
372.5479, 661.8945
374.4763, 669.4008
376.4048, 677.1262
378.3333, 682.7878
380.2617, 685.0676
382.1902, 686.2943
384.1187, 687.0804
386.0471, 687.7076
387.9756, 687.5947
389.9041, 687.4931
391.8326, 690.8312
393.7610, 697.6581
395.6895, 705.7707
397.6180, 714.9780
399.5464, 725.0743
401.4749, 738.0026
403.4034, 749.6989
405.3318, 756.6636
407.2603, 760.9030
409.1888, 766.8773
411.1172, 773.8727
413.0457, 777.3486
414.9742, 776.7484
416.9026, 773.5699
418.8311, 768.1135
420.7596, 759.8688
422.6880, 748.3617
424.6165, 734.3983
426.5450, 716.9550
428.4734, 698.2873
430.4019, 683.4176
432.3304, 672.5890
434.2588, 663.7262
436.1873, 656.5157
438.1158, 651.6034
440.0442, 648.8370
441.9727, 648.7736
443.9012, 650.9313
445.8296, 656.5981
447.7581, 666.9983
449.6866, 681.6283
451.6150, 699.6730
453.5435, 723.1600
455.4720, 742.7046
457.4004, 756.6716
459.3289, 768.6463
461.2574, 780.0292
463.1858, 788.8462
465.1143, 790.7308
467.0428, 791.5593
468.9712, 797.6009
470.8997, 808.5980
472.8282, 823.3053
474.7566, 842.4227
476.6851, 863.6051
478.6136, 888.3961
480.5420, 912.1216
482.4705, 935.7346
484.3990, 954.4261
486.3274, 963.5087
488.2559, 968.1462
490.1844, 973.5835
492.1128, 978.6920
494.0413, 980.2803
495.9698, 979.2432
497.8982, 966.1852
499.8267, 939.0544
501.7552, 906.6359
503.6836, 868.2603
505.6121, 829.7249
507.5406, 793.1960
509.4690, 758.5824
511.3975, 724.7648
513.3260, 693.1332
515.2545, 667.4138
517.1829, 647.9388
519.1114, 632.0319
521.0399, 619.7867
522.9683, 609.7663
524.8968, 601.9561
526.8253, 595.9796
528.7537, 592.2032
530.6822, 589.4261
532.6107, 587.6429
534.5391, 586.1055
536.4676, 583.5367
538.3961, 580.5516
540.3245, 579.0547
542.2530, 578.9200
544.1815, 578.4790
546.1099, 577.3043
548.0384, 576.9671
549.9669, 578.5536
551.8953, 579.9996
553.8238, 581.0540
555.7523, 581.6516
557.6807, 580.5267
559.6092, 579.2101
561.5377, 580.4492
563.4661, 583.8980
565.3946, 588.5903
567.3231, 594.3796
569.2515, 598.9802
571.1800, 601.8175
573.1085, 604.5541
575.0369, 606.8814
576.9654, 609.9606
578.8939, 614.2720
580.8223, 619.2538
582.7508, 625.0575
584.6793, 630.3798
586.6077, 634.2403
588.5362, 636.9051
590.4647, 638.4220
592.3931, 638.5775
594.3216, 639.0540
596.2501, 639.5680
598.1785, 641.9376
600.1070, 647.1732
602.0355, 651.9371
603.9639, 655.7190
605.8924, 658.8962
607.8209, 662.2653
609.7493, 664.4503
611.6778, 663.3767
613.6063, 661.1356
615.5347, 661.6187
617.4632, 663.5577
619.3917, 661.3334
621.3201, 654.7216
623.2486, 648.3129
625.1771, 642.5885
627.1055, 633.6688
629.0340, 620.0401
630.9625, 606.5831
632.8909, 595.1791
634.8194, 583.7277
636.7479, 569.8516
638.6763, 556.8140
640.6048, 547.8791
642.5333, 541.3939
644.4617, 533.7714
646.3902, 525.7258
648.3187, 521.4086
650.2471, 520.6226
652.1756, 519.0005
654.1041, 516.3459
656.0325, 514.9557
657.9610, 515.7185
659.8895, 515.5245
661.8179, 512.7666
663.7464, 510.3401
665.6749, 508.8163
667.6033, 508.0677
669.5318, 509.2793
671.4603, 510.4996
673.3887, 509.2945
675.3172, 506.6216
677.2457, 503.8023
679.1741, 500.9075
681.1026, 498.3623
683.0311, 496.0779
684.9595, 494.1867
686.8880, 493.0340
688.8165, 490.7693
690.7449, 486.0405
692.6734, 482.3725
694.6019, 480.9932
696.5303, 479.7288
698.4588, 477.8554
700.3873, 476.1373
702.3157, 474.9818
704.2442, 474.2520
706.1727, 474.0103
708.1011, 473.6695
710.0296, 472.4455
711.9581, 470.8862
713.8865, 470.1194
715.8150, 469.9435
717.7435, 469.1659
719.6719, 467.6566
721.6004, 466.5928
723.5289, 466.2231
725.4573, 465.8491
727.3858, 465.5694
729.3143, 464.9796
731.2427, 463.9205
733.1712, 462.6457
735.0997, 460.9965
737.0281, 459.8502
738.9566, 459.8764
740.8851, 459.8829
742.8135, 459.0948
744.7420, 458.1165
746.6705, 457.6103
748.5989, 457.4077
750.5274, 456.8688
752.4559, 455.9661
754.3843, 455.5462
756.3128, 455.7432
758.2413, 455.2726
760.1697, 454.1713
762.0982, 453.2037
764.0267, 452.0723
765.9551, 450.7421
767.8836, 449.5330
769.8121, 449.1492
771.7405, 449.6252
773.6690, 449.6471
775.5975, 448.8053
777.5259, 448.2728
779.4544, 448.5617
781.3829, 448.8431
783.3113, 448.7160
785.2398, 448.2358
787.1683, 447.3420
789.0967, 446.1615
791.0252, 444.8964
792.9537, 443.8238
794.8821, 443.2760
796.8106, 442.9748
798.7391, 442.2073
800.6675, 440.8727
802.5960, 439.3644
804.5245, 437.9584
806.4529, 436.8953
808.3814, 435.9700
810.3099, 435.6293
812.2383, 436.3549
814.1668, 436.6275
816.0953, 436.1082
818.0237, 435.1131
819.9522, 432.8259
821.8807, 431.5677
823.8091, 433.4530
825.7376, 434.2969
827.6661, 430.5937
829.5945, 427.5771
831.5230, 429.5291
833.4515, 432.0556
835.3799, 432.1316
837.3084, 430.8919
839.2369, 428.3920
841.1653, 425.5303
843.0938, 423.6099
845.0223, 422.7327
846.9507, 423.2756
848.8792, 424.4135
850.8077, 423.8747
852.7361, 422.0709
854.6646, 421.3136
856.5931, 421.5005
858.5215, 420.7796
860.4500, 419.0786
862.3785, 417.5614
864.3069, 416.3292
866.2354, 414.8400
868.1639, 412.8161
870.0923, 410.8481
872.0208, 408.9247
873.9493, 408.6240
875.8777, 410.5846
877.8062, 411.8981
879.7347, 411.9714
881.6631, 411.2372
883.5916, 409.6606
885.5201, 408.1260
887.4485, 406.8020
889.3770, 405.6633
891.3055, 404.8743
893.2339, 403.8946
895.1624, 401.9425
897.0909, 400.3786
899.0193, 400.2983
900.9478, 400.3438
902.8763, 399.7709
904.8047, 398.9471
906.7332, 397.6624
908.6617, 396.4054
910.5901, 396.7435
912.5186, 397.3320
914.4471, 395.0571
916.3755, 392.2085
918.3040, 392.9861
920.2325, 395.6070
922.1609, 396.7765
924.0894, 396.4329
926.0179, 395.3972
927.9464, 394.4261
929.8748, 393.7974
931.8033, 393.1732
933.7318, 392.2019
935.6602, 391.2969
937.5887, 391.6508
939.5172, 392.9224
941.4456, 393.9800
943.3741, 394.7289
945.3026, 394.7619
947.2310, 394.2686
949.1595, 394.7375
951.0880, 396.1449
953.0164, 398.9016
954.9449, 403.1144
956.8734, 407.8201
958.8018, 412.7189
960.7303, 419.0926
962.6588, 424.7020
964.5872, 439.1743
966.5157, 459.8407
968.4442, 499.1693
970.3726, 562.6299
972.3011, 633.5474
974.2296, 721.8563
976.1580, 790.7266
978.0865, 837.2825
980.0150, 862.6813
981.9434, 860.2535
983.8719, 855.3563
985.8004, 842.7025
987.7288, 857.1884
989.6573, 904.3511
991.5858, 980.0038
993.5142, 1092.269
995.4427, 1209.802
997.3712, 1337.026
999.2996, 1430.623
1001.228, 1477.074
1003.157, 1490.712
1005.085, 1466.117
1007.013, 1440.702
1008.942, 1430.217
1010.870, 1406.576
1012.799, 1362.954
1014.727, 1298.007
1016.656, 1205.908
1018.584, 1107.365
1020.513, 1005.591
1022.441, 905.7985
1024.370, 807.9448
1026.298, 716.6656
1028.227, 631.6332
1030.155, 558.2931
1032.084, 497.4548
1034.012, 451.0587
1035.941, 422.0656
1037.869, 401.3690
1039.797, 389.0841
1041.726, 379.7156
1043.654, 373.0535
1045.583, 367.4189
1047.511, 362.3224
1049.440, 358.3557
1051.368, 355.7126
1053.297, 353.6785
1055.225, 352.6984
1057.154, 351.9113
1059.082, 350.4730
1061.011, 349.6999
1062.939, 351.0973
1064.868, 351.4886
1066.796, 349.2375
1068.724, 347.7354
1070.653, 348.1368
1072.581, 348.4697
1074.510, 348.4046
1076.438, 347.9335
1078.367, 346.3035
1080.295, 346.2772
1082.224, 349.1116
1084.152, 350.5382
1086.081, 349.3346
1088.009, 349.2090
1089.938, 350.9695
1091.866, 352.8452
1093.795, 354.5128
1095.723, 356.4128
1097.651, 358.0861
1099.580, 361.5362
1101.508, 367.4831
1103.437, 373.2492
1105.365, 379.0440
1107.294, 383.2195
1109.222, 385.1533
1111.151, 387.4170
1113.079, 390.5202
1115.008, 393.8216
1116.936, 396.7736
1118.865, 399.8481
1120.793, 403.3001
1122.722, 405.7657
1124.650, 407.6309
1126.578, 414.6591
1128.507, 425.7577
1130.435, 431.9936
1132.364, 434.2253
1134.292, 436.0270
1136.221, 436.7994
1138.149, 435.6738
1140.078, 433.1742
1142.006, 428.7668
1143.935, 422.8593
1145.863, 417.9025
1147.792, 412.3446
1149.720, 402.5485
1151.649, 391.3027
1153.577, 382.9022
1155.505, 375.5538
1157.434, 366.9757
1159.362, 358.3752
1161.291, 350.8942
1163.219, 344.3326
1165.148, 338.1207
1167.076, 333.2070
1169.005, 331.0759
1170.933, 329.0909
1172.862, 324.9588
1174.790, 321.4750
1176.719, 320.4210
1178.647, 320.2585
1180.576, 320.7214
1182.504, 320.6403
1184.432, 319.5001
1186.361, 318.6165
1188.289, 318.2210
1190.218, 317.9411
1192.146, 317.7474
1194.075, 317.1350
1196.003, 316.3057
1197.932, 315.7174
1199.860, 314.9737
1201.789, 313.9930
1203.717, 313.0595
1205.646, 313.0590
1207.574, 313.7943
1209.503, 313.2847
1211.431, 311.6443
1213.359, 310.8496
1215.288, 310.9785
1217.216, 310.6866
1219.145, 309.7575
1221.073, 309.0728
1223.002, 308.8703
1224.930, 308.5807
1226.859, 308.6022
1228.787, 309.5796
1230.716, 309.8350
1232.644, 308.4176
1234.573, 306.9156
1236.501, 306.1720
1238.430, 305.8183
1240.358, 305.3058
1242.286, 305.0177
1244.215, 305.1246
1246.143, 304.8323
1248.072, 303.9311
1250.000, 303.6092
1251.929, 304.4622
1253.857, 304.3056
1255.786, 302.8858
1257.714, 302.2827
1259.643, 302.0933
1261.571, 302.2364
1263.500, 302.9556
1265.428, 302.3146
1267.357, 300.7266
1269.285, 301.1967
1271.214, 302.4361
1273.142, 301.2636
1275.070, 299.4390
1276.999, 298.4545
1278.927, 298.1880
1280.856, 299.9926
1282.784, 301.6439
1284.713, 301.4787
1286.641, 300.7578
1288.570, 298.7921
1290.498, 297.2499
1292.427, 298.0849
1294.355, 298.5105
1296.284, 296.9577
1298.212, 296.0758
1300.141, 296.8789
1302.069, 298.3397
1303.997, 299.3166
1305.926, 299.5363
1307.854, 299.8030
1309.783, 298.3942
1311.711, 295.6766
1313.640, 294.6783
1315.568, 295.0722
1317.497, 295.2496
1319.425, 294.8367
1321.354, 295.4188
1323.282, 296.0405
1325.211, 293.7255
1327.139, 291.8491
1329.068, 292.8828
1330.996, 293.7010
1332.924, 293.7090
1334.853, 292.7402
1336.781, 290.4643
1338.710, 290.4645
1340.638, 292.8923
1342.567, 293.4741
1344.495, 292.3172
1346.424, 290.8887
1348.352, 289.3514
1350.281, 288.4507
1352.209, 288.0567
1354.138, 288.8476
1356.066, 289.8278
1357.995, 288.8872
1359.923, 287.3184
1361.851, 286.0381
1363.780, 285.3449
1365.708, 285.8703
1367.637, 286.1936
1369.565, 286.1039
1371.494, 286.3507
1373.422, 286.4338
1375.351, 285.0248
1377.279, 282.7224
1379.208, 282.9812
1381.136, 284.6165
1383.065, 283.5256
1384.993, 281.7440
1386.922, 281.3636
1388.850, 281.6144
1390.778, 283.3089
1392.707, 283.8272
1394.635, 280.2614
1396.564, 278.4210
1398.492, 281.0236
1400.421, 281.6771
1402.349, 279.1400
1404.278, 278.9269
1406.206, 281.0704
1408.135, 281.4672
1410.063, 280.4645
1411.992, 278.5816
1413.920, 276.6054
1415.849, 277.2083
1417.777, 278.2307
1419.705, 277.0679
1421.634, 276.2601
1423.562, 277.0757
1425.491, 277.5811
1427.419, 277.6833
1429.348, 277.6833
1431.276, 276.9529
1433.205, 275.6650
1435.133, 274.4760
1437.062, 273.7939
1438.990, 273.4035
1440.919, 272.8125
1442.847, 272.4174
1444.776, 272.8390
1446.704, 273.2830
1448.632, 274.1765
1450.561, 274.2275
1452.489, 272.2853
1454.418, 271.5468
1456.346, 272.0064
1458.275, 271.3547
1460.203, 270.5833
1462.132, 270.4420
1464.060, 270.6400
1465.989, 270.9957
1467.917, 270.4407
1469.846, 267.9929
1471.774, 266.4666
1473.703, 267.9738
1475.631, 268.8355
1477.559, 267.7786
1479.488, 266.8754
1481.416, 266.2998
1483.345, 266.1345
1485.273, 265.7972
1487.202, 265.4017
1489.130, 265.0649
1491.059, 263.0157
1492.987, 261.0874
1494.916, 261.2012
1496.844, 261.6737
1498.773, 261.8748
1500.701, 261.6319
1502.630, 260.5405
1504.558, 259.6870
1506.486, 259.3594
1508.415, 259.9626
1510.343, 260.7366
1512.272, 258.5661
1514.200, 255.6876
1516.129, 255.6503
1518.057, 256.3589
1519.986, 256.5106
1521.914, 256.1419
1523.843, 255.2611
1525.771, 254.8105
1527.700, 255.0803
1529.628, 255.0146
1531.557, 254.6991
1533.485, 254.4259
1535.413, 253.8994
1537.342, 252.8059
1539.270, 252.1872
1541.199, 252.5555
1543.127, 252.1633
1545.056, 251.7003
1546.984, 252.2027
1548.913, 252.0769
1550.841, 251.3439
1552.770, 251.0986
1554.698, 250.1610
1556.627, 248.9097
1558.555, 248.2641
1560.484, 247.9466
1562.412, 248.1107
1564.340, 247.6198
1566.269, 246.3484
1568.197, 245.2685
1570.126, 244.9384
1572.054, 245.9151
1573.983, 246.7731
1575.911, 245.7598
1577.840, 244.6668
1579.768, 244.7672
1581.697, 244.7808
1583.625, 244.2958
1585.554, 244.4271
1587.482, 245.1427
1589.411, 244.3453
1591.339, 242.5098
1593.267, 241.9742
1595.196, 241.8075
1597.124, 240.4580
1599.053, 239.9019
1600.981, 240.6598
1602.910, 240.8074
1604.838, 240.3072
1606.767, 239.3730
1608.695, 238.4241
1610.624, 238.2699
1612.552, 238.3932
1614.481, 238.3808
1616.409, 238.0359
1618.338, 237.6204
1620.266, 237.2322
1622.194, 236.5619
1624.123, 235.2059
1626.051, 233.3402
1627.980, 232.5069
1629.908, 232.6883
1631.837, 233.7607
1633.765, 234.3416
1635.694, 233.1186
1637.622, 232.1531
1639.551, 232.0731
1641.479, 230.7857
1643.408, 228.7684
1645.336, 228.9168
1647.265, 229.4235
1649.193, 228.4496
1651.121, 227.1453
1653.050, 226.1480
1654.978, 225.4782
1656.907, 224.6081
1658.835, 224.3866
1660.764, 225.2993
1662.692, 225.0334
1664.621, 223.7470
1666.549, 222.9602
1668.478, 222.3963
1670.406, 222.5991
1672.335, 222.9206
1674.263, 221.8872
1676.192, 220.6027
1678.120, 220.0445
1680.048, 220.9571
1681.977, 221.3414
1683.905, 219.5978
1685.834, 218.5449
1687.762, 219.2664
1689.691, 219.2825
1691.619, 218.0600
1693.548, 217.3880
1695.476, 217.0952
1697.405, 215.6149
1699.333, 213.9917
1701.262, 213.1874
1703.190, 213.5069
1705.119, 214.3588
1707.047, 214.1741
1708.975, 214.0170
1710.904, 213.6127
1712.832, 212.1445
1714.761, 210.7702
1716.689, 210.9671
1718.618, 212.1953
1720.546, 211.3859
1722.475, 208.6890
1724.403, 208.4958
1726.332, 209.7784
1728.260, 208.8559
1730.189, 207.3127
1732.117, 207.2148
1734.046, 206.8023
1735.974, 205.3823
1737.902, 205.2828
1739.831, 205.7317
1741.759, 204.7719
1743.688, 204.1900
1745.616, 204.9453
1747.545, 204.5119
1749.473, 202.5250
1751.402, 200.9623
1753.330, 199.9597
1755.259, 199.2337
1757.187, 198.8998
1759.116, 197.8827
1761.044, 197.5966
1762.973, 198.8624
1764.901, 199.2593
1766.829, 198.6503
1768.758, 196.7048
1770.686, 195.2006
1772.615, 194.0105
1774.543, 193.3520
1776.472, 194.3725
1778.400, 194.2740
1780.329, 193.4853
1782.257, 192.7787
1784.186, 192.1173
1786.114, 192.1494
1788.043, 192.1155
1789.971, 191.4693
1791.900, 190.3922
1793.828, 188.7578
1795.756, 188.5404
1797.685, 189.3698
1799.613, 189.3373
1801.542, 188.1822
1803.470, 185.4428
1805.399, 184.5562
1807.327, 186.4311
1809.256, 187.6902
1811.184, 187.3861
1813.113, 186.3227
1815.041, 185.4876
1816.970, 184.0306
1818.898, 183.2517
1820.827, 183.2168
1822.755, 182.4551
1824.683, 181.5039
1826.612, 181.3329
1828.540, 181.8098
1830.469, 181.6611
1832.397, 180.1296
1834.326, 178.7094
1836.254, 179.1838
1838.183, 179.4057
1840.111, 177.5746
1842.040, 176.3989
1843.968, 175.7697
1845.897, 174.6135
1847.825, 174.1854
1849.754, 175.3838
1851.682, 175.3898
1853.610, 173.1016
1855.539, 172.0209
1857.467, 172.1455
1859.396, 172.1760
1861.324, 171.5221
1863.253, 171.3181
1865.181, 171.1369
1867.110, 170.9250
1869.038, 170.5164
1870.967, 168.6440
1872.895, 167.7052
1874.824, 167.7420
1876.752, 166.3090
1878.681, 165.0065
1880.609, 164.9666
1882.537, 165.0593
1884.466, 165.3087
1886.394, 164.4735
1888.323, 163.2120
1890.251, 162.0309
1892.180, 161.5802
1894.108, 162.4540
1896.037, 162.0659
1897.965, 161.1276
1899.894, 161.2650
1901.822, 161.1466
1903.751, 160.7807
1905.679, 159.6957
1907.608, 157.9245
1909.536, 156.5930
1911.464, 156.1972
1913.393, 157.0775
1915.321, 157.3771
1917.250, 156.8533
1919.178, 156.3078
1921.107, 155.7069
1923.035, 154.4804
1924.964, 153.3736
1926.892, 152.6304
1928.821, 152.1597
1930.749, 152.0599
1932.678, 151.9247
1934.606, 151.4838
1936.535, 151.2205
1938.463, 150.8419
1940.391, 149.9676
1942.320, 149.5430
1944.248, 149.1555
1946.177, 148.4024
1948.105, 148.0866
1950.034, 148.1422
1951.962, 147.7845
1953.891, 146.9179
1955.819, 146.1633
1957.748, 145.9644
1959.676, 145.9829
1961.605, 145.5529
1963.533, 144.7563
1965.462, 143.3855
1967.390, 142.7596
1969.318, 143.2348
1971.247, 142.9753
1973.175, 142.0251
1975.104, 141.7503
1977.032, 141.5473
1978.961, 139.7853
1980.889, 138.3814
1982.818, 138.8345
1984.746, 138.9919
1986.675, 137.9376
1988.603, 136.2645
1990.532, 136.4300
1992.460, 137.7674
1994.389, 137.0322
1996.317, 135.7929
1998.245, 135.5719
2000.174, 134.7820
2002.102, 133.7984
2004.031, 133.4711
2005.959, 132.9987
2007.888, 132.5121
2009.816, 132.1057
2011.745, 131.9197
2013.673, 131.7221
2015.602, 131.4689
2017.530, 130.9248
2019.459, 129.7479
2021.387, 128.4223
2023.316, 128.7200
2025.244, 129.1787
2027.172, 128.3109
2029.101, 127.0103
2031.029, 125.6934
2032.958, 125.3272
2034.886, 125.5043
2036.815, 124.7135
2038.743, 123.6639
2040.672, 122.6735
2042.600, 123.1194
2044.529, 124.5918
2046.457, 124.1142
2048.386, 122.7919
2050.314, 122.1785
2052.243, 122.1271
2054.171, 121.8394
2056.100, 121.0719
2058.028, 120.3018
2059.957, 119.8289
2061.885, 119.5034
2063.813, 119.6759
2065.742, 119.5979
2067.670, 118.9065
2069.599, 118.3088
2071.527, 117.9934
2073.456, 117.5792
2075.384, 117.4680
2077.313, 117.3392
2079.241, 115.9346
2081.170, 114.7588
2083.098, 114.4256
2085.027, 114.0843
2086.955, 113.5923
2088.884, 112.6542
2090.812, 112.3484
2092.740, 112.9383
2094.669, 112.9051
2096.597, 112.1172
2098.526, 111.1572
2100.454, 111.0941
2102.383, 110.9136
2104.311, 110.1539
2106.240, 109.6404
2108.168, 109.0811
2110.097, 108.3274
2112.025, 107.9412
2113.954, 109.2571
2115.882, 108.9537
2117.811, 106.6891
2119.739, 106.6754
2121.667, 107.0837
2123.596, 105.5028
2125.524, 104.8160
2127.453, 105.0734
2129.381, 105.0687
2131.310, 105.0196
2133.238, 104.6087
2135.167, 103.9185
2137.095, 102.9563
2139.024, 102.1834
2140.952, 101.9441
2142.881, 102.3817
2144.809, 102.4132
2146.738, 101.8958
2148.666, 101.1153
2150.594, 100.1685
2152.523, 99.25248
2154.451, 99.56310
2156.380, 100.0917
2158.308, 99.60706
2160.237, 99.03895
2162.165, 98.50038
2164.094, 97.58586
2166.022, 96.91031
2167.951, 96.70912
2169.879, 96.54622
2171.808, 96.29422
2173.736, 96.00777
2175.665, 95.52267
2177.593, 95.23643
2179.521, 94.94518
2181.450, 94.62814
2183.378, 94.31313
2185.307, 94.32193
2187.235, 94.58351
2189.164, 93.79317
2191.092, 92.90335
2193.021, 92.71692
2194.949, 92.54680
2196.878, 92.09386
2198.806, 91.50589
2200.735, 91.02932
2202.663, 90.89551
2204.592, 90.32890
2206.520, 89.48575
2208.448, 89.23948
2210.377, 89.50262
2212.305, 90.08986
2214.234, 89.79228
2216.162, 89.03006
2218.091, 88.22964
2220.019, 87.80852
2221.948, 87.64426
2223.876, 87.19768
2225.805, 87.00655
2227.733, 86.81297
2229.662, 87.09132
2231.590, 87.20329
2233.519, 85.66237
2235.447, 84.97978
2237.375, 85.27814
2239.304, 85.03581
2241.232, 84.59328
2243.161, 83.00139
2245.089, 82.30714
2247.018, 82.40202
2248.946, 82.48714
2250.875, 82.27290
2252.803, 81.78133
2254.732, 80.87823
2256.660, 80.07113
2258.589, 80.34314
2260.517, 80.58531
2262.446, 80.12971
2264.374, 79.76164
2266.302, 79.16652
2268.231, 77.99800
2270.159, 78.59478
2272.088, 79.23639
2274.016, 78.97557
2275.945, 78.29004
2277.873, 77.12785
2279.802, 76.37438
2281.730, 75.96438
2283.659, 76.17662
2285.587, 75.26326
2287.516, 74.20650
2289.444, 74.81319
2291.373, 75.37661
2293.301, 75.14424
2295.229, 74.23164
2297.158, 73.61572
2299.086, 72.93294
2301.015, 72.86989
2302.943, 72.83556
2304.872, 71.18885
2306.800, 70.22816
2308.729, 70.04417
2310.657, 71.18413
2312.586, 71.45885
2314.514, 70.22137
2316.443, 69.47832
2318.371, 69.12976
2320.300, 69.04638
2322.228, 69.74857
2324.156, 70.48570
2326.085, 69.22850
2328.013, 67.84303
2329.942, 67.04324
2331.870, 67.82660
2333.799, 68.14452
2335.727, 66.54195
2337.656, 66.35449
2339.584, 67.05946
2341.513, 67.21463
2343.441, 66.83495
2345.370, 66.12292
2347.298, 66.04353
2349.227, 66.04633
2351.155, 65.25704
2353.083, 64.60187
2355.012, 64.26105
2356.940, 64.15993
2358.869, 63.85771
2360.797, 63.47368
2362.726, 63.83317
2364.654, 63.24303
2366.583, 61.67892
2368.511, 62.41224
2370.440, 62.57849
2372.368, 61.07657
2374.297, 61.07247
2376.225, 61.55661
2378.154, 61.35528
2380.082, 60.93920
2382.010, 60.44746
2383.939, 60.21877
2385.867, 59.64540
2387.796, 59.01251
2389.724, 58.59824
2391.653, 58.51143
2393.581, 59.14110
2395.510, 58.42429
2397.438, 57.48655
2399.367, 57.70225
2401.295, 57.68699
2403.224, 57.27290
2405.152, 57.56832
2407.081, 57.05175
2409.009, 55.94635
2410.938, 55.53188
2412.866, 55.22072
2414.794, 54.98759
2416.723, 55.59356
2418.651, 55.82216
2420.580, 55.17219
2422.508, 54.50040
2424.437, 53.80189
2426.365, 53.49733
2428.294, 53.51787
2430.222, 53.67202
2432.151, 53.99274
2434.079, 53.42191
2436.008, 52.14060
2437.936, 52.23022
2439.865, 52.27505
2441.793, 52.00105
2443.721, 51.81054
2445.650, 51.10427
2447.578, 50.04589
2449.507, 49.39462
2451.435, 49.60846
2453.364, 51.29515
2455.292, 50.86752
2457.221, 49.42159
2459.149, 50.04805
2461.078, 50.39798
2463.006, 49.92563
2464.935, 49.44229
2466.863, 49.17445
2468.792, 48.99766
2470.720, 48.42304
2472.648, 47.57830
2474.577, 46.72814
2476.505, 46.95984
2478.434, 47.43804
2480.362, 47.92580
2482.291, 47.40908
2484.219, 46.76582
2486.148, 47.41052
2488.076, 47.70013
2490.005, 47.23600
2491.933, 45.67883
2493.862, 45.31502
2495.790, 45.52185
2497.719, 45.16814
2499.647, 45.32735
2501.575, 45.56264
2503.504, 44.68812
2505.432, 44.06245
2507.361, 43.75170
2509.289, 43.78634
2511.218, 43.54794
2513.146, 43.19906
2515.075, 43.93039
2517.003, 43.93011
2518.932, 42.65830
2520.860, 42.24767
2522.789, 42.28375
2524.717, 42.46743
2526.646, 42.48372
2528.574, 42.07816
2530.502, 41.28098
2532.431, 41.27480
2534.359, 41.06755
2536.288, 40.42743
2538.216, 40.74786
2540.145, 40.97495
2542.073, 40.44238
2544.002, 39.75608
2545.930, 39.50745
2547.859, 40.13022
2549.787, 40.24280
2551.716, 39.93199
2553.644, 40.05185
2555.573, 39.42052
2557.501, 38.63275
2559.429, 38.64629
2561.358, 38.36645
2563.286, 38.12286
2565.215, 38.59626
2567.143, 38.67528
2569.072, 37.57755
2571.000, 36.98713
2572.929, 37.61047
2574.857, 38.44566
2576.786, 37.96715
2578.714, 37.07841
2580.643, 36.13781
2582.571, 36.35582
2584.500, 36.38877
2586.428, 35.42428
2588.356, 35.53262
2590.285, 35.71584
2592.213, 35.58627
2594.142, 35.00442
2596.070, 34.91483
2597.999, 35.58035
2599.927, 35.12972
2601.856, 34.76641
2603.784, 34.78077
2605.713, 34.57492
2607.641, 34.42089
2609.570, 33.96932
2611.498, 33.23178
2613.427, 33.08398
2615.355, 33.41814
2617.283, 32.87052
2619.212, 32.32285
2621.140, 32.55238
2623.069, 32.46025
2624.997, 32.01911
2626.926, 32.04746
2628.854, 31.71107
2630.783, 31.81733
2632.711, 32.19706
2634.640, 31.69380
2636.568, 31.57724
2638.497, 32.32264
2640.425, 31.59151
2642.354, 30.68701
2644.282, 30.55377
2646.210, 31.83169
2648.139, 31.52379
2650.067, 29.65047
2651.996, 29.60242
2653.924, 30.00397
2655.853, 30.18167
2657.781, 30.12474
2659.710, 29.79362
2661.638, 29.13266
2663.567, 28.97009
2665.495, 28.96029
2667.424, 28.83789
2669.352, 29.06422
2671.281, 28.91920
2673.209, 28.67406
2675.137, 28.27739
2677.066, 27.23400
2678.994, 26.54341
2680.923, 27.10541
2682.851, 27.25344
2684.780, 27.24668
2686.708, 27.19029
2688.637, 26.75362
2690.565, 26.06248
2692.494, 25.81390
2694.422, 25.64542
2696.351, 25.71186
2698.279, 26.91079
2700.208, 26.85806
2702.136, 26.34399
2704.064, 25.87463
2705.993, 25.92829
2707.921, 25.82194
2709.850, 24.99948
2711.778, 25.19695
2713.707, 25.41071
2715.635, 24.88253
2717.564, 24.99748
2719.492, 25.36817
2721.421, 25.57199
2723.349, 24.02476
2725.278, 24.28522
2727.206, 25.43654
2729.135, 23.78295
2731.063, 23.10510
2732.991, 23.49510
2734.920, 23.79681
2736.848, 23.36602
2738.777, 23.01340
2740.705, 23.12468
2742.634, 23.66349
2744.562, 23.62298
2746.491, 22.54483
2748.419, 22.69200
2750.348, 22.94246
2752.276, 22.25623
2754.205, 22.47290
2756.133, 23.09256
2758.062, 22.95332
2759.990, 21.24313
2761.918, 20.94307
2763.847, 21.67040
2765.775, 21.46281
2767.704, 21.40405
2769.632, 21.38596
2771.561, 21.23175
2773.489, 20.87532
2775.418, 20.53201
2777.346, 21.24990
2779.275, 21.29107
2781.203, 20.68948
2783.132, 20.00607
2785.060, 20.07281
2786.989, 20.17039
2788.917, 20.13161
2790.845, 19.87912
2792.774, 19.43768
2794.702, 19.06553
2796.631, 19.61766
2798.559, 19.59876
2800.488, 19.42782
2802.416, 19.05592
2804.345, 18.70615
2806.273, 18.73794
2808.202, 18.76587
2810.130, 18.63894
2812.059, 18.31520
2813.987, 18.17210
2815.916, 17.73818
2817.844, 17.33867
2819.772, 17.72931
2821.701, 18.41261
2823.629, 17.85284
2825.558, 17.46510
2827.486, 17.91247
2829.415, 17.32496
2831.343, 17.07715
2833.272, 17.35380
2835.200, 17.01656
2837.129, 17.10596
2839.057, 17.10493
2840.986, 16.83953
2842.914, 17.10591
2844.843, 17.42439
2846.771, 18.01731
2848.699, 17.43233
2850.628, 16.75309
2852.556, 16.89005
2854.485, 16.79349
2856.413, 16.63733
2858.342, 16.47263
2860.270, 16.49547
2862.199, 16.28085
2864.127, 16.04107
2866.056, 16.30640
2867.984, 16.08461
2869.913, 15.95473
2871.841, 15.36012
2873.770, 15.48260
2875.698, 15.20038
2877.626, 14.73461
2879.555, 15.59937
2881.483, 15.02298
2883.412, 14.16849
2885.340, 14.85605
2887.269, 14.33907
2889.197, 13.92680
2891.126, 14.18052
2893.054, 14.51764
2894.983, 14.50508
2896.911, 14.23678
2898.840, 14.32698
2900.768, 14.26875
2902.697, 13.98253
2904.625, 13.45933
2906.553, 13.69483
2908.482, 13.60725
2910.410, 13.14902
2912.339, 13.47694
2914.267, 13.44275
2916.196, 13.10868
2918.124, 13.65584
2920.053, 13.08052
2921.981, 12.43585
2923.910, 12.68645
2925.838, 13.87616
2927.767, 13.83234
2929.695, 13.09577
2931.624, 12.64982
2933.552, 13.13341
2935.480, 13.37732
2937.409, 12.58338
2939.337, 12.12134
2941.266, 12.25034
2943.194, 12.43418
2945.123, 12.25870
2947.051, 11.92748
2948.980, 11.78453
2950.908, 11.44476
2952.837, 12.06804
2954.765, 11.83837
2956.694, 10.86739
2958.622, 11.32434
2960.551, 11.28671
2962.479, 10.91453
2964.407, 11.12810
2966.336, 11.92997
2968.264, 11.48235
2970.193, 10.30844
2972.121, 10.95902
2974.050, 11.03838
2975.978, 10.87424
2977.907, 10.92549
2979.835, 10.27046
2981.764, 10.11999
2983.692, 10.66911
2985.621, 10.09009
2987.549, 10.49267
2989.478, 10.87132
2991.406, 10.77282
2993.334, 10.76883
2995.263, 10.09802
2997.191, 9.532625
2999.120, 10.20889
3001.048, 11.88180
3002.977, 12.33178
3004.905, 10.34706
3006.834, 9.830164
3008.762, 9.794742
3010.691, 9.929203
3012.619, 10.20637
3014.548, 9.418669
3016.476, 9.008638
3018.405, 8.791395
3020.333, 9.000154
3022.261, 9.165815
3024.190, 9.411472
3026.118, 9.139561
3028.047, 9.086249
3029.975, 9.210855
3031.904, 9.290293
3033.832, 8.466957
3035.761, 9.108170
3037.689, 9.396897
3039.618, 8.741608
3041.546, 8.230077
3043.475, 7.908910
3045.403, 7.802957
3047.332, 8.041376
3049.260, 8.548711
3051.188, 8.811083
3053.117, 8.818537
3055.045, 8.925788
3056.974, 8.619531
3058.902, 8.473783
3060.831, 8.913074
3062.759, 8.845469
3064.688, 8.538263
3066.616, 8.519576
3068.545, 8.706488
3070.473, 8.866129
3072.402, 8.261617
3074.330, 7.703258
3076.259, 8.051572
3078.187, 7.570785
3080.115, 7.516856
3082.044, 7.931394
3083.972, 7.287946
3085.901, 7.320148
3087.829, 7.337501
3089.758, 7.041678
3091.686, 7.136687
3093.615, 6.673814
3095.543, 6.406435
3097.472, 7.094680
3099.400, 7.601032
3101.329, 7.573180
3103.257, 7.209998
3105.186, 7.447143
3107.114, 7.233949
3109.042, 6.933235
3110.971, 6.903392
3112.899, 6.388313
3114.828, 6.661826
3116.756, 7.234653
3118.685, 7.642268
3120.613, 7.161813
3122.542, 6.990244
3124.470, 6.903911
3126.399, 6.701221
3128.327, 7.337228
3130.256, 7.175740
3132.184, 6.927937
3134.113, 7.123089
3136.041, 7.276715
3137.969, 7.253718
3139.898, 7.205642
3141.826, 7.458716
3143.755, 7.330321
3145.683, 7.018328
3147.612, 6.946568
3149.540, 6.901193
3151.469, 6.178195
3153.397, 6.362161
3155.326, 7.095660
3157.254, 6.001019
3159.183, 6.288772
3161.111, 6.770898
3163.040, 6.597552
3164.968, 5.580584
3166.896, 5.922971
3168.825, 6.059461
3170.753, 5.764634
3172.682, 5.533807
3174.610, 5.158181
3176.539, 4.951100
3178.467, 5.160894
3180.396, 6.666482
3182.324, 6.445409
3184.253, 6.163926
3186.181, 6.473714
3188.110, 5.947827
3190.038, 5.933785
3191.967, 5.977727
3193.895, 5.932359
3195.823, 5.774327
3197.752, 7.005736
3199.680, 7.131753
3201.609, 5.720100
3203.537, 5.942906
3205.466, 6.257304
3207.394, 6.561024
3209.323, 6.637375
3211.251, 6.433891
3213.180, 6.840281
3215.108, 6.850884
3217.037, 6.172377
3218.965, 6.226034
3220.894, 5.971782
3222.822, 5.925809
3224.750, 5.949271
3226.679, 5.434861
3228.607, 5.632642
3230.536, 5.443804
3232.464, 4.863500
3234.393, 4.207259
3236.321, 5.724677
3238.250, 5.686263
3240.178, 4.589446
3242.107, 5.531957
3244.035, 5.231835
3245.964, 4.820265
3247.892, 4.670949
3249.821, 4.688767
3251.749, 4.523950
3253.677, 5.463939
3255.606, 6.161847
3257.534, 5.557017
3259.463, 5.580080
3261.391, 5.299468
3263.320, 5.509002
3265.248, 6.264050
3267.177, 4.894288
3269.105, 5.164898
3271.034, 5.973039
3272.962, 6.256730
3274.891, 6.560359
3276.819, 5.970933
3278.748, 5.896364
3280.676, 6.554058
3282.604, 6.691537
3284.533, 6.534907
3286.461, 6.271684
3288.390, 6.011565
3290.318, 5.865875
3292.247, 6.039888
3294.175, 5.593399
3296.104, 5.067692
3298.032, 4.756101
3299.961, 4.879947
3301.889, 4.739596
3303.818, 4.797501
3305.746, 5.118685
3307.675, 4.472258
3309.603, 4.886197
3311.531, 5.310343
3313.460, 5.058473
3315.388, 3.659341
3317.317, 4.471415
3319.245, 4.856053
3321.174, 4.830996
3323.102, 5.087563
3325.031, 5.402456
3326.959, 5.177067
3328.888, 5.570691
3330.816, 6.645766
3332.745, 5.557689
3334.673, 6.241877
3336.602, 6.458924
3338.530, 6.034945
3340.458, 6.153766
3342.387, 6.398215
3344.315, 6.645776
3346.244, 6.996740
3348.172, 7.199655
3350.101, 6.224693
3352.029, 6.441634
3353.958, 6.242653
3355.886, 5.631102
3357.815, 6.086997
3359.743, 6.818935
3361.672, 6.358949
3363.600, 5.340002
3365.529, 4.782925
3367.457, 5.085478
3369.385, 5.298039
3371.314, 5.964434
3373.242, 6.572188
3375.171, 5.414179
3377.099, 5.241487
3379.028, 5.888798
3380.956, 6.282505
3382.885, 6.023917
3384.813, 6.561339
3386.742, 6.699613
3388.670, 7.097801
3390.599, 7.596990
3392.527, 7.239134
3394.456, 6.611543
3396.384, 7.462576
3398.313, 8.280570
3400.241, 7.942518
3402.169, 7.526268
3404.098, 8.954810
3406.026, 9.344827
3407.955, 8.836284
3409.883, 9.089965
3411.812, 8.906251
3413.740, 8.520878
3415.669, 8.978177
3417.597, 9.693849
3419.526, 8.586809
3421.454, 7.804320
3423.383, 7.179997
3425.311, 7.458912
3427.240, 8.563766
3429.168, 7.771281
3431.096, 7.115701
3433.025, 7.098541
3434.953, 6.652753
3436.882, 5.044555
3438.810, 5.633296
3440.739, 5.450356
3442.667, 5.381244
3444.596, 5.424533
3446.524, 4.744437
3448.453, 5.401216
3450.381, 5.139165
3452.310, 4.273375
3454.238, 3.681210
3456.167, 4.362046
3458.095, 5.057574
3460.023, 5.325555
3461.952, 5.155126
3463.880, 4.856332
3465.809, 5.172347
3467.737, 5.668320
3469.666, 5.305049
3471.594, 5.276282
3473.523, 6.005766
3475.451, 4.554796
3477.380, 5.258220
3479.308, 4.984520
3481.237, 4.422249
3483.165, 5.046640
3485.094, 5.862652
3487.022, 5.753628
3488.950, 5.326367
3490.879, 4.752663
3492.807, 4.139201
3494.736, 4.426541
3496.664, 4.569192
3498.593, 4.139668
3500.521, 3.586059
3502.450, 3.452249
3504.378, 3.685706
3506.307, 3.443811
3508.235, 3.346831
3510.164, 3.485121
3512.092, 3.576743
3514.021, 2.912296
3515.949, 3.601435
3517.877, 3.216266
3519.806, 2.924504
3521.734, 3.923646
3523.663, 3.337316
3525.591, 3.223783
3527.520, 3.908700
3529.448, 4.164960
3531.377, 3.424530
3533.305, 3.167708
3535.234, 3.531313
3537.162, 4.463857
3539.091, 4.821424
3541.019, 4.395938
3542.948, 4.501801
3544.876, 5.306393
3546.804, 4.563591
3548.733, 4.380610
3550.661, 4.968520
3552.590, 4.371683
3554.518, 3.492448
3556.447, 4.606938
3558.375, 5.043803
3560.304, 4.412941
3562.232, 3.916326
3564.161, 3.134852
3566.089, 3.530995
3568.018, 3.886827
3569.946, 3.798372
3571.875, 3.441211
3573.803, 2.986317
3575.731, 3.892832
3577.660, 4.063049
3579.588, 4.064252
3581.517, 3.895578
3583.445, 2.285130
3585.374, 2.487027
3587.302, 2.533243
3589.231, 2.440020
3591.159, 2.427410
3593.088, 2.516285
3595.016, 2.370279
3596.945, 3.829347
3598.873, 3.475539
3600.802, 2.723814
3602.730, 2.930877
3604.658, 3.245656
3606.587, 2.708065
3608.515, 3.935477
3610.444, 4.742599
3612.372, 4.628603
3614.301, 4.512163
3616.229, 4.749109
3618.158, 4.233488
3620.086, 4.555440
3622.015, 5.023836
3623.943, 5.099838
3625.872, 5.183402
3627.800, 5.487416
3629.729, 4.455457
3631.657, 4.289704
3633.585, 4.807710
3635.514, 4.810251
3637.442, 3.867777
3639.371, 3.738251
3641.299, 3.459171
3643.228, 3.183784
3645.156, 3.273527
3647.085, 3.678471
3649.013, 2.907569
3650.942, 2.711141
3652.870, 4.289067
3654.799, 3.640952
3656.727, 1.644145
3658.656, 3.705687
3660.584, 2.999974
3662.512, 2.594862
3664.441, 3.116960
3666.369, 3.304070
3668.298, 2.668058
3670.226, 2.203681
3672.155, 3.388670
3674.083, 2.845117
3676.012, 2.316156
3677.940, 2.756296
3679.869, 3.723671
3681.797, 4.147990
3683.726, 4.043173
3685.654, 3.417028
3687.583, 3.429653
3689.511, 3.048090
3691.439, 2.402955
3693.368, 3.658978
3695.296, 4.239401
3697.225, 3.205951
3699.153, 3.069714
3701.082, 3.204673
3703.010, 3.077244
3704.939, 3.696568
3706.867, 3.627420
3708.796, 2.862965
3710.724, 2.523912
3712.653, 2.810446
3714.581, 3.153661
3716.510, 2.813607
3718.438, 1.653882
3720.366, 2.479924
3722.295, 2.349824
3724.223, 2.100018
3726.152, 1.836394
3728.080, 1.132367
3730.009, 3.091398
3731.937, 1.322588
3733.866, 2.018551
3735.794, 2.593297
3737.723, 1.920469
3739.651, 1.349037
3741.580, 2.256361
3743.508, 2.504040
3745.437, 3.037062
3747.365, 2.696689
3749.293, 2.071050
3751.222, 2.236301
3753.150, 3.300919
3755.079, 3.163148
3757.007, 3.450812
3758.936, 2.892993
3760.864, 3.411443
3762.793, 4.003318
3764.721, 3.300846
3766.650, 3.402472
3768.578, 2.662763
3770.507, 3.503862
3772.435, 3.069234
3774.364, 2.555089
3776.292, 3.104935
3778.220, 3.777753
3780.149, 2.748355
3782.077, 2.421566
3784.006, 3.167348
3785.934, 2.792394
3787.863, 1.860204
3789.791, 1.547600
3791.720, 1.722196
3793.648, 2.516156
3795.577, 2.895894
3797.505, 2.271220
3799.434, 1.742145
3801.362, 1.764750
3803.291, 2.132951
3805.219, 2.532390
3807.147, 2.124517
3809.076, 2.234271
3811.004, 2.669492
3812.933, 2.444726
3814.861, 2.496274
3816.790, 3.330534
3818.718, 3.360101
3820.647, 3.013428
3822.575, 2.780797
3824.504, 2.444484
3826.432, 2.937483
3828.361, 3.072203
3830.289, 2.441236
3832.218, 3.012610
3834.146, 3.029923
3836.074, 2.544942
3838.003, 1.940379
3839.931, 2.155535
3841.860, 2.608284
3843.788, 2.759580
3845.717, 2.792047
3847.645, 1.698618
3849.574, 1.826831
3851.502, 2.782434
3853.431, 2.412830
3855.359, 1.696208
3857.288, 1.613917
3859.216, 1.834967
3861.145, 1.961200
3863.073, 2.580686
3865.001, 2.130244
3866.930, 1.989515
3868.858, 2.011955
3870.787, 1.924457
3872.715, 1.807516
3874.644, 1.928864
3876.572, 3.163828
3878.501, 2.397371
3880.429, 2.488431
3882.358, 2.822639
3884.286, 2.951904
3886.215, 2.468674
3888.143, 1.984541
3890.072, 3.585757
3892.000, 2.738615
3893.928, 3.625345
3895.857, 3.927953
3897.785, 3.085586
3899.714, 2.836341
3901.642, 3.207492
3903.571, 3.290087
3905.499, 3.850308
3907.428, 3.018567
3909.356, 2.963917
3911.285, 2.903538
3913.213, 2.400432
3915.142, 2.422015
3917.070, 2.790409
3918.999, 2.359356
3920.927, 1.274597
3922.855, 1.789196
3924.784, 0.9056037
3926.712, 1.430090
3928.641, 0.9453305
3930.569, 0.8019633
3932.498, 1.570812
3934.426, 2.210987
3936.355, 2.170400
3938.283, 1.429008
3940.212, 0.7058800
3942.140, 2.601297
3944.069, 2.380929
3945.997, 2.203332
3947.926, 2.295596
3949.854, 2.165729
3951.782, 2.572573
3953.711, 3.536277
3955.639, 2.225800
3957.568, 2.375506
3959.496, 3.698614
3961.425, 3.885917
3963.353, 3.123135
3965.282, 2.389369
3967.210, 2.520724
3969.139, 3.438635
3971.067, 3.237711
3972.996, 1.755836
3974.924, 2.808846
3976.853, 2.300725
3978.781, 2.426080
3980.709, 2.564563
3982.638, 2.044772
3984.566, 1.531460
3986.495, 1.105573
3988.423, 1.284641
3990.352, 1.184789
3992.280, 1.091436
3994.209, 1.934459
3996.137, 1.374882
3998.066, 1.862191
3999.994, 1.706471
4001.923, 1.259780
4003.851, 1.465302
4005.780, 2.086710
4007.708, 2.034929
4009.636, 0.7582170
4011.565, 1.203906
4013.493, 1.626693
4015.422, 2.694484
4017.350, 2.202165
4019.279, 1.191915
4021.207, 1.725269
4023.136, 2.188905
4025.064, 1.914618
4026.993, 2.267442
4028.921, 1.131119
4030.850, 1.735361
4032.778, 0.9187182
4034.707, 1.297186
4036.635, 0.3642019
4038.563, 0.8478522
4040.492, 1.328854
4042.420, 1.110742
4044.349, 1.162112
4046.277, 1.326837
4048.206, 1.792016
4050.134, 1.907419
4052.063, 0.8722475
4053.991, 0.2270849
4055.920, 0.3160638
4057.848, 0.3020134
4059.777, 3.0091640E-02
4061.705, 0.3823368
4063.634, 1.229996
4065.562, 1.310737
4067.490, 0.8517284
4069.419, 1.285669
4071.347, 1.747633
4073.276, 2.452170
4075.204, 2.130175
4077.133, 2.035634
4079.061, 2.421557
4080.990, 2.012932
4082.918, 1.887657
4084.847, 2.391781
4086.775, 1.317714
4088.704, 2.684025
4090.632, 2.387675
4092.561, 1.710654
4094.489, 2.034235
4096.417, 1.830964
4098.346, 1.590315
4100.274, 0.6587737
4102.203, 0.3665614
4104.131, 1.042954
4106.060, 1.159905
4107.988, 0.5090996
4109.917, 0.8852727
4111.845, 0.8302886
4113.774, 1.445608
4115.702, 1.291359
4117.631, 0.8322961
4119.559, 1.608873
4121.488, 1.163566
4123.416, 1.365351
4125.345, 1.144234
4127.273, 0.6628231
4129.202, 1.690416
4131.130, 1.943639
4133.059, 1.310496
4134.987, 2.249312
4136.916, 0.9186989
4138.844, 1.747704
4140.772, 1.469684
4142.701, 1.775221
4144.629, 2.045984
4146.558, 2.016273
4148.486, 1.828700
4150.415, 1.811245
4152.343, 1.854338
4154.271, 1.671206
4156.200, 1.963231
4158.128, 2.707258
4160.057, 0.4022749
4161.985, 1.888612
4163.914, 1.154970
4165.842, 1.698333
4167.771, 0.2562331
4169.699, 0.4633669
4171.628, 0.5095688
4173.556, 0.6948924
4175.485, 1.032281
4177.413, 1.080813
4179.342, 1.232134
4181.270, 0.6064163
4183.199, 0.6052899
4185.127, 0.4841321
4187.056, 0.1477714
4188.984, 0.4099805
4190.913, 0.4213960
4192.841, 1.294079
4194.770, 1.483231
4196.698, 0.9130061
4198.626, 1.019031
4200.555, 1.498693
4202.483, 1.745013
4204.412, 1.478949
4206.340, 1.021853
4208.269, 1.186606
4210.197, 1.394599
4212.125, 1.296242
4214.054, 1.368603
4215.982, 0.8578890
4217.911, 1.873296
4219.839, 1.143013
4221.768, 0.9891062
4223.696, 1.060735
4225.625, 1.034513
4227.553, 1.339608
4229.482, 1.534086
4231.410, 0.6271943
4233.339, 0.4852606
4235.267, 0.4622497
4237.196, 0.2893119
4239.124, 1.709938
4241.053, 0.6731856
4242.981, 0.5395821
4244.910, 1.010389
4246.838, 0.6095834
4248.767, 3.7240621E-02
4250.695, 1.023808
4252.624, 1.989784
4254.552, 1.880163
4256.480, 0.6604765
4258.409, 1.454423
4260.337, 1.674188
4262.266, 1.832176
4264.194, 1.263151
4266.123, 1.324892
4268.051, 1.045633
4269.979, 0.2830380
4271.908, 0.8553203
4273.836, 1.078715
4275.765, 1.084409
4277.693, 2.118009
4279.622, 1.871286
4281.550, 0.4189726
4283.479, 0.8151938
4285.407, 2.689397
4287.336, 0.8967846
4289.264, 1.108819
4291.193, 0.8306422
4293.121, 0.5284369
4295.050, -0.4045837
4296.978, 0.6284556
4298.907, 0.2207533
4300.835, 0.6107858
4302.764, 1.436471
4304.692, 0.4345230
4306.621, 5.7051070E-02
4308.549, 0.8824371
4310.478, 0.3509271
4312.406, 7.3395833E-02
4314.334, 1.216108
4316.263, 0.6653010
4318.191, 0.3186536
4320.120, 0.8773689
4322.048, 1.460580
4323.977, -8.6243421E-02
4325.905, 0.1373433
##END=



